#
# Number of atoms
#
 80
#
# The current total energy in Eh
#
  -4219.561500508726
#
# The current gradient in Eh/bohr
#
       0.000142293347
       0.000112187035
      -0.000149574430
      -0.000142903678
       0.000000180688
       0.000212633772
      -0.000020199137
       0.000051513701
      -0.000274510696
      -0.000412185270
       0.000275055950
       0.000041746118
       0.000299413032
      -0.000288966044
       0.000136125331
       0.000144385656
       0.000200286380
       0.000152545230
       0.000048845870
      -0.000000157061
      -0.000063567208
       0.000021457725
       0.000236600898
      -0.000293948271
       0.000029608064
      -0.000060157431
       0.000052510899
      -0.000238646281
       0.000045098433
       0.000292959835
       0.000149457732
      -0.000065914296
       0.000038820246
      -0.000017433475
      -0.000127333975
       0.000111747903
      -0.000100222298
      -0.000036554869
       0.000046335796
       0.000138362489
       0.000045363167
       0.000198959093
       0.000001883569
       0.000054192875
      -0.000089255742
      -0.000113178500
      -0.000202598160
       0.000091154074
      -0.000155335230
       0.000142882458
      -0.000032790977
       0.000165939349
       0.000008119658
      -0.000060487956
      -0.000099769852
       0.000087010406
      -0.000003142425
       0.000187624175
      -0.000112906565
      -0.000074828991
       0.000034014866
      -0.000054653611
       0.000045705359
       0.000003885942
      -0.000044964001
      -0.000012850673
       0.000080412718
      -0.000113803677
       0.000186226224
      -0.000121420287
       0.000043117834
      -0.000113756412
      -0.000093506570
      -0.000089206350
      -0.000051212075
       0.000061392675
       0.000179045524
       0.000199121666
       0.000157911297
      -0.000014632790
       0.000227147025
      -0.000096597060
       0.000142447453
       0.000166970405
       0.000008990413
       0.000036876187
      -0.000010128135
      -0.000045437235
       0.000000707956
      -0.000114390493
      -0.000027693685
      -0.000044928081
       0.000052646699
      -0.000142173664
      -0.000088946144
       0.000057002816
      -0.000149977399
      -0.000079892138
       0.000174756354
      -0.000069484783
      -0.000243493480
       0.000021292139
      -0.000019334655
      -0.000244510022
      -0.000072689069
       0.000101783584
      -0.000023192799
       0.000020643864
       0.000191608901
       0.000138475696
      -0.000226346002
      -0.000231423375
      -0.000369332975
      -0.000415233029
      -0.000026756917
       0.000193082858
       0.000038639032
       0.000189081226
      -0.000058123603
      -0.000380583945
       0.000097340345
       0.000111713896
       0.000015686286
      -0.000119705029
      -0.000034547528
       0.000016206483
      -0.000040098224
      -0.000120057892
      -0.000166176748
      -0.000020827072
       0.000021522255
       0.000042581943
      -0.000364877519
       0.000124745185
       0.000022786924
       0.000231484915
       0.000014004693
       0.000060255519
       0.000094371533
       0.000126764519
      -0.000267091784
       0.000160893532
      -0.000145387020
      -0.000201903461
      -0.000034482683
      -0.000039676070
      -0.000069347270
       0.000037875554
       0.000027903000
       0.000048001653
      -0.000005412865
      -0.000090338037
      -0.000019260697
       0.000040482918
       0.000042816596
       0.000021529372
      -0.000020967240
       0.000024755708
       0.000020336799
      -0.000067723493
      -0.000011206218
       0.000046865187
       0.000008613797
       0.000119576070
       0.000102378568
      -0.000071709334
       0.000026385611
      -0.000003516803
       0.000033503818
       0.000035351223
       0.000025905902
       0.000039158700
      -0.000054557020
       0.000104844957
       0.000016978928
       0.000038237104
       0.000076789825
       0.000172301584
      -0.000041082211
      -0.000050220811
      -0.000114218486
       0.000085721148
       0.000074550108
       0.000092926049
       0.000097729806
      -0.000038752978
       0.000017979629
      -0.000015581166
       0.000096939390
      -0.000018463159
       0.000038561754
      -0.000008330581
       0.000004604319
      -0.000030133365
       0.000077278257
       0.000045800234
      -0.000049045964
      -0.000029663699
      -0.000010590540
       0.000014082729
      -0.000090932610
       0.000008887079
      -0.000081052785
       0.000007936241
      -0.000031036359
      -0.000013118810
      -0.000147619706
       0.000043122864
      -0.000045327531
      -0.000016515693
      -0.000011574467
       0.000126964063
       0.000005050418
      -0.000005373150
      -0.000038575794
      -0.000007389245
       0.000036225862
       0.000070747644
      -0.000008974406
       0.000037194316
      -0.000034711361
      -0.000010336723
       0.000008186404
      -0.000003733286
      -0.000023494499
      -0.000044174843
      -0.000024201078
      -0.000010884782
      -0.000012500575
       0.000004040523
       0.000201153252
      -0.000032940562
       0.000031559293
      -0.000066827332
      -0.000035440876
       0.000038529050
      -0.000026633277
      -0.000000489111
       0.000022644065
       0.000070402683
#
# The atomic numbers and current coordinates in Bohr
#
  40    -0.3764610    3.3625410    2.6993083 
  40     0.5580992   -3.9979516   -3.1255996 
  40     3.1085614   -1.7850461    2.1973845 
  40    -3.6963685    1.5374769   -3.1955543 
  40     3.4379188    1.5133682   -3.1424872 
  40    -3.1794533   -2.1812841    2.7729011 
   8    -3.0256116    1.1218120    0.5007736 
   8     3.6635607   -2.0692297   -1.8599681 
   8    -0.1865253   -3.3337987    0.6117730 
   8     2.3770708    1.8660812    0.5551073 
   8    -0.2872850   -0.0531261   -3.6638782 
   8    -0.1631398   -0.1184938    4.1246131 
   8    -3.3574773    3.7907171    5.5849771 
   8    -2.6733226    6.1685303    0.7757616 
   8     2.4093210    4.0657920    5.5304806 
   8     2.1520451    7.1470966    1.0393239 
   8    -2.3542197   -6.8345995   -2.2648130 
   8    -2.2141534   -4.0278139   -6.2866518 
   8     2.8849058   -7.1259400   -1.9617917 
   8     2.9187689   -4.0960341   -6.5418680 
   8     2.2942377   -4.2892227    5.5044354 
   8     4.6593329    0.4987511    5.4365697 
   8     4.7621801   -5.6273000    1.5148601 
   8     7.1924861   -0.8862507    1.5141625 
   8    -7.1269498   -0.3574254   -2.2882130 
   8    -5.5906849    4.9798238   -1.9766993 
   8    -4.5714242   -0.5528322   -6.5519800 
   8    -2.1992910    4.4120140   -5.5886993 
   8     1.9220981    3.9102744   -6.2418221 
   8     4.2697679    5.5977252   -2.2536182 
   8     4.7979326   -0.3332428   -6.5800053 
   8     7.3343750    1.4628181   -1.9885461 
   8    -7.2360660   -1.6769599    1.7053760 
   8    -4.9312757   -0.1010236    5.9195359 
   8    -4.5403006   -5.7593767    1.1757457 
   8    -1.9035960   -4.7049058    5.6876254 
   6    -4.6428300    2.1082934    6.6771159 
   6    -4.7424041    6.4564159   -0.3375858 
   6     4.0707449    2.5664649    6.3671987 
   6     3.8807753    7.2272448   -0.6470572 
   6    -3.8167240   -7.2926308   -0.4714768 
   6    -3.7122252   -2.6047043   -7.3959335 
   6     4.4639887   -7.2228851   -0.1806631 
   6     4.4873560   -2.5398128   -7.3747657 
   6     0.3107690   -5.0602652    6.4933481 
   6     8.3292103    0.2453154   -0.1971974 
   6    -8.2585665   -0.9872599   -0.2801420 
   6    -0.1901644    4.7226631   -6.8350425 
   1    -4.3729800   -3.1763375   -9.2741228 
   1     5.6753324   -8.9043146   -0.1238555 
   1     5.0827414    3.1845652    8.0656786 
   1    -5.8685064    8.1228016    0.1475738 
   1     5.6780603   -3.1488090   -8.9569575 
   1    -0.3456324    5.8349203   -8.5749335 
   1     5.0815944    8.9194071   -0.6564055 
   1    10.4007145    0.2145346   -0.1495462 
   1    -4.5800661   -9.2166917   -0.3536643 
   1   -10.3281007   -0.9333674   -0.3349949 
   1    -5.6117565    2.6556073    8.4221521 
   1     0.4876562   -6.1813261    8.2272644 
  13    -5.7444447    8.7670578    7.2975500 
  13    -7.2022000   12.3947509   11.6427676 
   1    -4.9788152   14.6457542   11.6841892 
   1    -9.8464551   13.7618371   11.7072926 
   1    -6.6746547   11.5465504    8.6236782 
   1    -5.6880544    9.4526454    4.4042537 
   1    -2.8869096    8.7604011    8.6118500 
   1    -6.3385455   10.1339132   13.3886793 
  13    -1.8994400   14.4934108   12.6581430 
   1    -1.1705636   11.8287902   11.2410149 
   1    -0.6522103   16.8559382   11.3285126 
   1    -7.4034447    6.6618349    8.6005226 
  13    -0.1756182   10.4414040    8.2725386 
   1    -0.1033683    8.5958299    5.2215388 
   1     2.1852267    9.0591738    9.4396369 
   1    -1.9740699   14.0808577   15.6152008 
  13     1.1840596   10.1557749    2.8630443 
   1     3.8225149   11.3573960    3.6445409 
   1    -0.4911281   12.9427563    6.6293670 
   1    -0.7506157   11.6629486    1.1511348 
