#
# Number of atoms
#
 80
#
# The current total energy in Eh
#
  -4220.512866405573
#
# The current gradient in Eh/bohr
#
      -0.000047385224
      -0.000132658996
       0.000121871822
       0.000012676424
       0.000005745932
       0.000014606420
      -0.000023872297
       0.000003114103
       0.000029572654
       0.000070464496
      -0.000008423725
      -0.000026303086
      -0.000037045383
       0.000038126185
       0.000005309818
       0.000028716859
      -0.000128019048
       0.000035358679
       0.000027779375
       0.000096555995
      -0.000037649875
      -0.000004779514
       0.000005104293
      -0.000042283131
       0.000015391410
      -0.000005608613
       0.000012708733
       0.000060343040
       0.000044670515
       0.000010926580
      -0.000046938395
      -0.000008796983
       0.000013947784
      -0.000023016840
       0.000054149389
      -0.000012117908
      -0.000004815193
      -0.000007121074
      -0.000011713183
      -0.000032835006
       0.000021399494
       0.000002817588
       0.000033061395
       0.000020704521
      -0.000043150806
       0.000075468495
       0.000038237160
      -0.000029064141
       0.000008201795
       0.000007003828
      -0.000015072214
       0.000006288961
      -0.000013566502
      -0.000027737031
       0.000001476682
      -0.000005163777
      -0.000004945341
      -0.000009979137
       0.000005217487
       0.000007244804
       0.000017489693
      -0.000008628146
       0.000002313746
      -0.000002104563
       0.000027214519
      -0.000024281448
      -0.000008298966
       0.000013791709
      -0.000015551307
      -0.000039155272
      -0.000034287709
       0.000035360663
      -0.000021213289
      -0.000001498492
      -0.000001352955
      -0.000001658195
      -0.000035585633
       0.000018799966
      -0.000030750082
      -0.000000042891
       0.000019902937
      -0.000033737363
       0.000011070357
      -0.000001875418
       0.000004561013
       0.000007926721
       0.000010749687
       0.000027022881
      -0.000027663860
      -0.000024486222
       0.000037893205
       0.000000641363
      -0.000018561829
      -0.000012022494
       0.000026398858
      -0.000003718856
       0.000026557743
       0.000012063161
       0.000013207305
      -0.000008107727
       0.000016955935
      -0.000009624020
       0.000014494198
       0.000010321563
      -0.000007196761
      -0.000020435054
       0.000020373033
       0.000003480760
      -0.000009777796
       0.000003471719
       0.000020994884
       0.000000556037
       0.000005083383
      -0.000027623362
      -0.000008896490
      -0.000018569554
       0.000025032700
      -0.000038032332
       0.000009401509
       0.000011181037
      -0.000016327145
      -0.000009243955
       0.000008995114
       0.000002808878
      -0.000000157248
      -0.000006577916
      -0.000001247187
      -0.000011335341
       0.000003028073
      -0.000003823472
       0.000000858631
       0.000008067542
       0.000009077721
       0.000000163241
      -0.000004006480
       0.000035542300
      -0.000007994629
      -0.000008554854
      -0.000004873215
       0.000013674068
      -0.000016444293
       0.000010809724
      -0.000008064712
       0.000000719586
       0.000002600953
       0.000001106296
       0.000001930756
      -0.000001369449
      -0.000001882275
       0.000003531739
      -0.000010665476
      -0.000001357290
       0.000002300547
       0.000008690022
       0.000008640536
      -0.000000125645
      -0.000000119599
      -0.000001041201
       0.000000854757
      -0.000001617049
      -0.000001709969
      -0.000002984362
      -0.000003471215
      -0.000004225044
      -0.000014028814
      -0.000003635804
      -0.000000564359
      -0.000002586919
      -0.000001827937
      -0.000000324489
      -0.000004539890
       0.000002344524
      -0.000001569255
       0.000002427996
      -0.000001145722
      -0.000005482930
      -0.000006521506
      -0.000002654190
      -0.000001037381
      -0.000001071202
       0.000006931949
      -0.000174432568
      -0.000069762495
      -0.000081276086
       0.000073238260
       0.000027408307
       0.000047791048
      -0.000025549556
      -0.000032852537
       0.000018292389
      -0.000012745781
       0.000045821367
       0.000022035929
      -0.000113846761
       0.000013797653
       0.000012544296
       0.000007372140
       0.000000109849
       0.000010416718
       0.000389411473
      -0.000015484669
      -0.000010171676
      -0.000002971961
      -0.000012552584
      -0.000043079525
       0.000128187037
       0.000035800958
       0.000000211870
      -0.000130426040
       0.000026121669
       0.000017080828
      -0.000006271609
       0.000010714743
      -0.000009653592
       0.000018122257
      -0.000001529965
      -0.000047085532
      -0.000093315708
       0.000074101244
      -0.000002833688
      -0.000023315637
      -0.000014239299
       0.000021827037
      -0.000001612563
      -0.000005388402
      -0.000001108880
      -0.000018122902
      -0.000021246859
       0.000047692993
      -0.000049220663
      -0.000071729610
      -0.000010131174
       0.000012069878
       0.000019126780
      -0.000010620693
      -0.000025831621
      -0.000036531616
      -0.000011547970
       0.000011701994
       0.000032821691
#
# The atomic numbers and current coordinates in Bohr
#
  40    -0.1990132    4.1020269    2.4712028 
  40     0.3767854   -3.9678888   -2.7348690 
  40     3.4860122   -1.8900471    2.6248052 
  40    -3.4506686    1.9789212   -2.8197496 
  40     3.0888227    1.9683366   -3.3820666 
  40    -3.0380528   -1.7973888    3.1584869 
   8    -3.1723182    1.5462300    1.0590153 
   8     3.3657763   -1.3727881   -1.2816093 
   8    -0.0880508   -3.4340532    1.1419553 
   8     0.2256515    3.6957682   -1.3558581 
   8    -0.4052320   -0.2804964   -3.8377597 
   8     0.4996322    0.4453233    3.7573118 
   8    -2.5370125    4.2423034    5.9509737 
   8    -3.2347100    7.1062789    1.5986374 
   8     3.6809984    4.2217619    4.0461948 
   8     2.5469784    7.7713018    0.5836497 
   8    -2.6532775   -6.6809557   -1.6041964 
   8    -2.4588601   -4.3497585   -5.9366302 
   8     3.0177365   -7.0676091   -1.7015117 
   8     2.9659802   -4.2374735   -6.0558690 
   8     2.5839991   -4.1947050    6.0245258 
   8     5.1576127    0.5916583    5.7507237 
   8     5.0919776   -5.6846449    1.7795807 
   8     7.4095108   -0.5789856    1.5392199 
   8    -7.4529746    1.2492081   -1.5180721 
   8    -4.7663755    5.9080466   -2.2248534 
   8    -5.1265714   -1.0613547   -5.1986030 
   8    -2.6412919    3.9270254   -6.4494962 
   8     1.6209955    3.8369368   -6.8752502 
   8     4.3675036    6.0980067   -2.9304896 
   8     4.6770743   -0.3364592   -6.5090699 
   8     6.9897806    2.0439799   -1.8348978 
   8    -6.9970734   -1.5441184    1.7210186 
   8    -4.4939003    0.4655063    6.3727762 
   8    -4.4150121   -5.7323797    2.2038105 
   8    -1.6617901   -3.8989383    6.5224109 
   6    -3.9994178    2.7004018    7.0783215 
   6    -4.5554271    7.4290328   -0.3946347 
   6     4.8536779    2.9488876    5.7500418 
   6     3.8808411    7.8848977   -1.4548891 
   6    -3.8760340   -7.2093087    0.4035314 
   6    -4.2983264   -2.9303045   -6.4823351 
   6     4.6252730   -7.2931980    0.0655305 
   6     4.3961273   -2.6406132   -7.1235389 
   6     0.5298505   -4.6093332    7.1896346 
   6     8.2565979    0.6829775   -0.3058990 
   6    -8.2658608   -0.0543057    0.3165455 
   6    -0.5934882    4.3486667   -7.6295287 
   1    -5.3514955   -3.3733720   -8.2832133 
   1     5.7476535   -9.1029438    0.1158046 
   1     5.6879037    4.0643871    7.3611277 
   1    -5.6542397    9.2477111   -0.5217888 
   1     5.5342641   -3.3307814   -8.7870483 
   1    -0.7669242    5.2744796   -9.5406430 
   1     4.6997153    9.7953842   -1.9375217 
   1    10.3662427    0.6344693   -0.6120987 
   1    -4.5846155   -9.2142460    0.5703601 
   1   -10.3505150    0.0925982    0.7388698 
   1    -4.9337886    3.3995999    8.8569808 
   1     0.6637824   -5.7268288    8.9980500 
  13    -6.0234533    9.6015999    5.3130238 
  13    -7.6229904    9.8887126   10.9284558 
   1    -6.0321553   12.2826291   12.4930716 
   1   -10.5365250   10.0691522   11.8057071 
   1    -7.3267229   11.2240873    7.9793366 
   1    -6.1635942   11.8414037    3.2477710 
   1    -3.1597436    9.5618274    6.7669631 
   1    -5.8850845    7.3662188   11.0494580 
  13    -2.8340108   12.3529495   13.3820320 
   1    -1.5837178   11.3683461   10.5904150 
   1    -2.2779248   15.3396387   13.7024818 
   1    -7.6078118    6.9902419    5.3414761 
  13    -0.2004287    9.4967380    8.0677615 
   1     0.5342172    7.9927100    4.8061247 
   1     0.9009615    7.1621567    9.6768229 
   1    -2.4426863   10.2081358   15.5202594 
  13     2.3473023   10.3444608    3.3452000 
   1     5.2726239   10.4847787    4.2338836 
   1     1.4298585   11.8882364    6.8966081 
   1     0.6587533   12.5409619    2.0460043 
