Corrected dielectric energy   =     -0.002817620
Total C-PCM charge            =      0.000000000
C-PCM corrected charges:
    -0.000515851
    -0.000515555
    -0.000247637
     0.000131331
     0.000318333
     0.000318055
     0.000133444
    -0.000781354
    -0.000133161
    -0.000136939
    -0.000790039
     0.000164974
    -0.000082408
    -0.000085288
     0.000160841
    -0.000000000
    -0.000000000
    -0.000179633
    -0.000295524
    -0.000291667
    -0.000175752
    -0.001616214
    -0.001974447
    -0.001974850
    -0.001617391
    -0.000180666
    -0.000029486
    -0.000030399
    -0.000181259
     0.000431933
     0.000246934
     0.000247009
     0.000431852
    -0.000755645
    -0.000692283
    -0.000693034
    -0.000755154
    -0.000615439
    -0.001100335
    -0.001101626
    -0.000618981
    -0.000000086
     0.000001363
     0.000001414
    -0.000000089
    -0.000014183
    -0.000013001
    -0.000013616
    -0.000014461
     0.000528810
     0.000302082
     0.000300235
     0.000528934
    -0.000000061
     0.000003443
     0.000003465
    -0.000000062
    -0.001507763
    -0.001392640
    -0.001388201
    -0.001505108
    -0.000450692
    -0.001039263
    -0.001039863
    -0.000453186
    -0.000136023
    -0.000007425
    -0.000007710
    -0.000137645
    -0.000552903
    -0.000568671
    -0.000569496
    -0.000554024
     0.000000529
    -0.000002368
    -0.000002279
     0.000000485
    -0.001462350
    -0.001497193
    -0.001497873
    -0.001461964
    -0.001150022
    -0.001201089
    -0.001201429
    -0.001149404
    -0.000383361
    -0.000488886
    -0.000491170
    -0.000386551
     0.000647549
     0.000632982
     0.000634844
     0.000648163
    -0.001942364
    -0.002097355
    -0.002097952
    -0.001942558
    -0.000996957
    -0.000705335
    -0.000712607
    -0.000995547
     0.000454235
    -0.000089095
    -0.000087854
     0.000454398
    -0.000207122
    -0.000520143
    -0.000519559
    -0.000205954
    -0.001903812
    -0.002068862
    -0.002068892
    -0.001905685
    -0.000000013
    -0.000000012
    -0.000000013
    -0.000000013
    -0.000000058
     0.000000433
     0.000000386
    -0.000000057
    -0.001474063
    -0.001583921
    -0.001584902
    -0.001473791
    -0.000929976
    -0.000930443
    -0.002172810
    -0.002172634
    -0.000075505
    -0.000074385
    -0.000115670
    -0.000118873
     0.000600167
     0.000602778
     0.000671141
     0.000591489
     0.000592759
     0.000670597
    -0.000785690
    -0.001126922
    -0.001127303
    -0.000785466
    -0.001730025
    -0.001730947
    -0.002437547
    -0.002438209
    -0.000000758
    -0.000000771
    -0.001655768
    -0.001666890
    -0.002054910
    -0.001984585
    -0.001975665
    -0.002048472
     0.000006321
     0.000047434
     0.000048559
     0.000006663
    -0.001798575
    -0.002104380
    -0.002104766
    -0.001800477
    -0.000552945
    -0.001108372
    -0.001108335
    -0.000553940
    -0.000833910
    -0.000878581
    -0.000880364
    -0.000833665
    -0.000916339
    -0.001210694
    -0.001212088
    -0.000919853
     0.000014085
     0.000351179
     0.000348903
     0.000014037
     0.000016345
    -0.000203743
    -0.000201758
     0.000018709
     0.000427516
     0.000438301
     0.000437977
     0.000428371
    -0.000587544
    -0.000622981
    -0.000616686
    -0.000581416
    -0.001079563
    -0.001190749
    -0.001191412
    -0.001081780
    -0.000000057
     0.000018474
     0.000017934
    -0.000000058
     0.000619563
     0.000688371
     0.000689263
     0.000618283
    -0.002332354
    -0.002455751
    -0.002455826
    -0.002333015
    -0.000000001
    -0.000000001
    -0.001455532
    -0.001738890
    -0.001739620
    -0.001455760
    -0.001174228
    -0.001293102
    -0.001294647
    -0.001174039
    -0.000515551
    -0.000515855
    -0.000247638
    -0.000788355
    -0.000136031
    -0.000134052
    -0.000783033
     0.000132805
     0.000318170
     0.000318217
     0.000131956
     0.000162222
    -0.000083963
    -0.000083738
     0.000163597
    -0.000177355
    -0.000292832
    -0.000294366
    -0.000178028
    -0.000000000
    -0.000000000
    -0.000180546
    -0.000030245
    -0.000029638
    -0.000181378
    -0.001617130
    -0.001974634
    -0.001974670
    -0.001616466
    -0.000755534
    -0.000692731
    -0.000692592
    -0.000755262
     0.000431969
     0.000247106
     0.000246829
     0.000431810
    -0.000617994
    -0.001100825
    -0.001101145
    -0.000616415
    -0.000014463
    -0.000013613
    -0.000013004
    -0.000014181
    -0.000000088
     0.000001386
     0.000001391
    -0.000000087
     0.000528809
     0.000301158
     0.000301154
     0.000528950
    -0.001505941
    -0.001388083
    -0.001392763
    -0.001506928
    -0.000000061
     0.000003438
     0.000003471
    -0.000000061
    -0.000136873
    -0.000007642
    -0.000007492
    -0.000136791
    -0.000452621
    -0.001039374
    -0.001039763
    -0.000451242
    -0.000553626
    -0.000569136
    -0.000569033
    -0.000553303
     0.000000501
    -0.000002312
    -0.000002334
     0.000000513
    -0.001149431
    -0.001201488
    -0.001201030
    -0.001149994
    -0.001461916
    -0.001497853
    -0.001497215
    -0.001462397
    -0.000385431
    -0.000490157
    -0.000489904
    -0.000384481
     0.000647908
     0.000634184
     0.000633645
     0.000647814
    -0.000994769
    -0.000711862
    -0.000706080
    -0.000997731
    -0.001942439
    -0.002097865
    -0.002097445
    -0.001942477
    -0.000206647
    -0.000519894
    -0.000519818
    -0.000206419
     0.000454062
    -0.000088181
    -0.000088782
     0.000454581
    -0.001905235
    -0.002068632
    -0.002069125
    -0.001904259
    -0.000000013
    -0.000000013
    -0.000000012
    -0.000000013
    -0.000000058
     0.000000402
     0.000000416
    -0.000000058
    -0.001473734
    -0.001584834
    -0.001583992
    -0.001474116
    -0.000930387
    -0.000930034
    -0.000074338
    -0.000075552
    -0.002172608
    -0.002172834
    -0.000117623
    -0.000116924
     0.000601834
     0.000601116
     0.000670893
     0.000592295
     0.000591947
     0.000670842
    -0.000785684
    -0.001127344
    -0.001126890
    -0.000785461
    -0.001730845
    -0.001730128
    -0.002438139
    -0.002437616
    -0.000000766
    -0.000000763
    -0.001667632
    -0.001655037
    -0.002049387
    -0.001976318
    -0.001983937
    -0.002053997
     0.000006534
     0.000048051
     0.000047939
     0.000006447
    -0.001800004
    -0.002104426
    -0.002104726
    -0.001799040
    -0.000833756
    -0.000880157
    -0.000878793
    -0.000833813
    -0.000553884
    -0.001108241
    -0.001108477
    -0.000552987
    -0.000918800
    -0.001211275
    -0.001211514
    -0.000917387
     0.000017503
    -0.000202472
    -0.000203039
     0.000017559
     0.000014100
     0.000349354
     0.000350740
     0.000014021
     0.000427985
     0.000438081
     0.000438204
     0.000427912
    -0.000583245
    -0.000618335
    -0.000621336
    -0.000585716
    -0.001081133
    -0.001190947
    -0.001191218
    -0.001080209
     0.000618849
     0.000688887
     0.000688749
     0.000619000
    -0.000000057
     0.000018092
     0.000018314
    -0.000000057
    -0.000000001
    -0.000000001
    -0.002332852
    -0.002455748
    -0.002455831
    -0.002332514
    -0.001174037
    -0.001294493
    -0.001293261
    -0.001174224
    -0.001455703
    -0.001739522
    -0.001738994
    -0.001455581
     0.000338280
    -0.000008280
    -0.000368595
    -0.000124602
    -0.000272892
    -0.000124831
    -0.000274913
    -0.000172449
    -0.000460596
    -0.000000003
    -0.000171413
    -0.000462648
    -0.000000003
     0.000642106
     0.000645546
     0.000642195
     0.000645718
     0.000377370
     0.000506128
     0.000377360
     0.000507887
    -0.000141337
    -0.000192935
    -0.000142162
    -0.000194589
    -0.000136779
    -0.000318105
    -0.000136488
    -0.000319478
     0.000236810
     0.000270039
     0.000237284
     0.000271186
     0.000041671
     0.000364607
     0.000810130
     0.000815644
    -0.000016380
    -0.000015029
    -0.000000001
    -0.000000893
     0.000542239
     0.000691792
     0.001281126
     0.001507988
     0.001451248
     0.001396048
     0.000859081
     0.000952562
     0.001314664
     0.001302326
     0.001253291
     0.001236773
     0.001050382
     0.001034593
    -0.000006948
     0.000128058
    -0.000000004
    -0.000000618
     0.000701531
     0.001186756
     0.001905120
     0.001829487
     0.001591600
     0.001522501
    -0.000000014
    -0.000000341
    -0.000009358
     0.000055196
     0.001751705
     0.001706484
     0.001699709
     0.001727271
     0.001260527
     0.001239273
    -0.000003604
    -0.000008583
    -0.000005234
    -0.000011518
     0.001439540
     0.001404752
     0.001772064
     0.001722247
     0.001260843
     0.001222357
     0.000357772
     0.000901119
    -0.000000004
     0.001725567
     0.001642284
     0.001481033
     0.001432103
     0.001784514
     0.001832288
     0.001592061
     0.001651561
    -0.000000001
     0.000388453
     0.001014146
    -0.000018911
    -0.000001392
     0.001325920
     0.001751377
     0.001150561
     0.000338283
    -0.000370572
    -0.000008162
    -0.000275290
    -0.000124526
    -0.000273270
    -0.000124297
    -0.000000004
    -0.000463187
    -0.000170752
    -0.000000003
    -0.000461140
    -0.000171785
     0.000645743
     0.000642180
     0.000645570
     0.000642092
     0.000508365
     0.000377145
     0.000506605
     0.000377156
    -0.000194711
    -0.000142038
    -0.000193056
    -0.000141214
    -0.000319862
    -0.000136066
    -0.000318493
    -0.000136357
     0.000271333
     0.000237110
     0.000270184
     0.000236637
     0.000365597
     0.000041191
     0.000815700
     0.000810106
    -0.000015052
    -0.000016403
    -0.000000894
    -0.000000001
     0.000542283
     0.000691628
     0.001395917
     0.001451109
     0.001506983
     0.001279776
     0.001302085
     0.001314413
     0.000953754
     0.000860427
     0.001034631
     0.001050418
     0.001236903
     0.001253424
     0.001186714
     0.000701640
    -0.000000620
    -0.000000004
     0.000127777
    -0.000006965
     0.001522490
     0.001591579
     0.001829641
     0.001905246
     0.001706313
     0.001751594
     0.000055683
    -0.000009245
    -0.000000338
    -0.000000014
     0.001239127
     0.001260377
     0.001726614
     0.001699047
     0.001404535
     0.001439314
    -0.000011573
    -0.000005274
    -0.000008535
    -0.000003572
     0.001222321
     0.001260801
     0.001722439
     0.001772328
     0.001642160
     0.001725432
    -0.000000004
     0.000899921
     0.000356812
     0.001432189
     0.001481118
     0.001832266
     0.001784302
     0.001651682
     0.001592466
     0.001015197
     0.000389238
    -0.000000001
     0.001325692
    -0.000001408
    -0.000018832
     0.001150507
     0.001751590
    -0.000000001
    -0.000000886
     0.000542120
     0.000691996
     0.001451223
     0.001396237
     0.001283559
     0.001509077
     0.000857055
     0.000950446
     0.001314923
     0.001302617
     0.001050193
     0.001034466
     0.001252945
     0.001236496
    -0.000000004
    -0.000000611
     0.000702278
     0.001186168
    -0.000006909
     0.000127957
     0.001591352
     0.001522525
     0.001904640
     0.001829272
    -0.000009502
     0.000054165
     0.001751644
     0.001706710
    -0.000000014
    -0.000000344
     0.001260596
     0.001239421
     0.001700650
     0.001728083
    -0.000005181
    -0.000011424
     0.001439696
     0.001405036
    -0.000003658
    -0.000008649
     0.001260712
     0.001222373
     0.001771409
     0.001721893
    -0.000000004
     0.001725448
     0.001642505
     0.000359957
     0.000901937
     0.001480674
     0.001431940
     0.001784835
     0.001832271
     0.001591455
     0.001651170
     0.000387936
     0.001011180
    -0.000000001
    -0.000001369
     0.001326155
    -0.000019032
     0.001150529
     0.001750899
    -0.000000886
    -0.000000001
     0.000542164
     0.000691830
     0.001508075
     0.001282209
     0.001396104
     0.001451085
     0.001302376
     0.001314671
     0.000951642
     0.000858402
     0.001236625
     0.001253078
     0.001034503
     0.001050230
     0.000127683
    -0.000006927
     0.001186133
     0.000702373
    -0.000000613
    -0.000000004
     0.001829423
     0.001904768
     0.001522512
     0.001591332
    -0.000000341
    -0.000000014
     0.001706538
     0.001751535
     0.000054648
    -0.000009391
     0.001727428
     0.001699991
     0.001239275
     0.001260447
    -0.000008601
    -0.000003626
     0.001404817
     0.001439471
    -0.000011479
    -0.000005221
     0.001722083
     0.001771674
     0.001222335
     0.001260671
     0.000900751
     0.000358984
     0.001642377
     0.001725316
    -0.000000004
     0.001432024
     0.001480760
     0.001832247
     0.001784622
     0.001651292
     0.001591860
    -0.000000001
     0.001012249
     0.000388710
    -0.000018953
     0.001325927
    -0.000001384
     0.001751112
     0.001150475
