     0.00   0.00287003465918 
     2.05   0.00770589808726 
     4.11   0.01868185868381 
     6.16   0.04082218838491 
     8.21   0.08061277015519 
    10.26   0.14409965620984 
    12.32   0.23375472295614 
    14.37   0.34551712176005 
    16.42   0.46813937895140 
    18.48   0.58649852521514 
    20.53   0.68725636486412 
    22.58   0.76354662986099 
    24.63   0.81555904327592 
    26.69   0.84762654847564 
    28.74   0.86575378275512 
    30.79   0.87813438939603 
    32.84   0.89728789723247 
    34.90   0.93871123316647 
    36.95   1.01397989192283 
    39.00   1.12183243376057 
    41.06   1.24460938901919 
    43.11   1.35492171730443 
    45.16   1.42930853221203 
    47.21   1.46051052313877 
    49.27   1.46002721929492 
    51.32   1.44994942722702 
    53.37   1.44935775352283 
    55.43   1.46500713179238 
    57.48   1.48976008249190 
    59.53   1.50803338827426 
    61.58   1.50423908656716 
    63.64   1.47038102430727 
    65.69   1.41196253419000 
    67.74   1.34830134674462 
    69.79   1.30574798976768 
    71.85   1.30467789477101 
    73.90   1.34714137356229 
    75.95   1.41453929441732 
    78.01   1.47747258415473 
    80.06   1.51252421951557 
    82.11   1.51548886487977 
    84.16   1.50209818175251 
    86.22   1.50114145955914 
    88.27   1.54392807170034 
    90.32   1.65788659142918 
    92.38   1.86776456225754 
    94.43   2.19746058668880 
    96.48   2.66916275081177 
    98.53   3.29418900216147 
   100.59   4.05788869207990 
   102.64   4.90609998158895 
   104.69   5.74513981562196 
   106.74   6.46220106004347 
   108.80   6.95918441162128 
   110.85   7.18319702267358 
   112.90   7.13818150581751 
   114.96   6.88090102352982 
   117.01   6.50793220987650 
   119.06   6.14194206333081 
   121.11   5.91083990998485 
   123.17   5.91467770628101 
   125.22   6.18557270378273 
   127.27   6.66246034539998 
   129.33   7.20079883791323 
   131.38   7.61878656530479 
   133.43   7.76138566538774 
   135.48   7.55313102939346 
   137.54   7.01869601941833 
   139.59   6.26662858577188 
   141.64   5.44474915238958 
   143.70   4.69135852608181 
   145.75   4.10068794503246 
   147.80   3.71722472264055 
   149.85   3.54820856300700 
   151.91   3.58188355720069 
   153.96   3.79137748235454 
   156.01   4.13086002950657 
   158.06   4.53716228558255 
   160.12   4.94744804790165 
   162.17   5.32485488879520 
   164.22   5.67535493040719 
   166.28   6.03531997417784 
   168.33   6.43617779097649 
   170.38   6.86437605679832 
   172.43   7.24702171712656 
   174.49   7.47232424616269 
   176.54   7.43690276564343 
   178.59   7.09513687033551 
   180.65   6.48808741314124 
   182.70   5.73737117337077 
   184.75   5.00723596273796 
   186.80   4.44613118606562 
   188.86   4.13288485638343 
   190.91   4.05216985653232 
   192.96   4.11179908060754 
   195.01   4.19227910437675 
   197.07   4.19909718337713 
   199.12   4.09235601381657 
   201.17   3.88236826319386 
   203.23   3.60627387607663 
   205.28   3.30696254365812 
   207.33   3.02627583523253 
   209.38   2.81005924584578 
   211.44   2.71052083355682 
   213.49   2.77845146442964 
   215.54   3.04813850565790 
   217.60   3.52785973050571 
   219.65   4.19830046142413 
   221.70   5.01631963105150 
   223.75   5.91676289718902 
   225.81   6.81370807044470 
   227.86   7.60972490145914 
   229.91   8.21888350342986 
   231.96   8.59206586575417 
   234.02   8.72494555215935 
   236.07   8.64175836546935 
   238.12   8.36895935598970 
   240.18   7.92116159124889 
   242.23   7.31530197968799 
   244.28   6.59080291110569 
   246.33   5.82707874156408 
   248.39   5.13901611332222 
   250.44   4.66728836901798 
   252.49   4.56924954676733 
   254.55   5.00615081398665 
   256.60   6.11066557444066 
   258.65   7.92530485527277 
   260.70  10.33601404352638 
   262.76  13.04384642066313 
   264.81  15.61430480660045 
   266.86  17.60032645273870 
   268.91  18.68808832269622 
   270.97  18.79464854928671 
   273.02  18.07286736328018 
   275.07  16.83286909390903 
   277.13  15.42294322313543 
   279.18  14.12428325245962 
   281.23  13.08914585593173 
   283.28  12.33150887249458 
   285.34  11.76020158344631 
   287.39  11.23764681884080 
   289.44  10.64222442324794 
   291.50   9.91333780211071 
   293.55   9.06210857827680 
   295.60   8.15045068179809 
   297.65   7.24831311282357 
   299.71   6.40600058804872 
   301.76   5.64807258911585 
   303.81   4.99677867872004 
   305.87   4.49397133602793 
   307.92   4.19959320961039 
   309.97   4.16428318479916 
   312.02   4.39376800676062 
   314.08   4.83277915006370 
   316.13   5.37956655628494 
   318.18   5.92430627817069 
   320.23   6.38868633842503 
   322.29   6.74220064179876 
   324.34   6.99217292541925 
   326.39   7.15545067137660 
   328.45   7.23722448647735 
   330.50   7.22843986557542 
   332.55   7.12049126425542 
   334.60   6.92149407884001 
   336.66   6.66023791731857 
   338.71   6.37733548916446 
   340.76   6.10740045606802 
   342.82   5.86717467249776 
   344.87   5.65319068871350 
   346.92   5.45230724703947 
   348.97   5.26103038582538 
   351.03   5.10332442863044 
   353.08   5.03826576390524 
   355.13   5.14850574696396 
   357.18   5.50928453390758 
   359.24   6.14740305026253 
   361.29   7.01240521098108 
   363.34   7.98361295974066 
   365.40   8.91720303736250 
   367.45   9.70494234195841 
   369.50  10.30236292530009 
   371.55  10.70255720472863 
   373.61  10.87981918152534 
   375.66  10.75595659521019 
   377.71  10.22765990046007 
   379.77   9.24162393186539 
   381.82   7.86072165862170 
   383.87   6.26951131491910 
   385.92   4.71037128817816 
   387.98   3.38904948863063 
   390.03   2.40739211055085 
   392.08   1.75373096208302 
   394.13   1.34406660269345 
   396.19   1.08223850911860 
   398.24   0.90451004111750 
   400.29   0.79141078197859 
   402.35   0.75688832571024 
   404.40   0.82908863078635 
   406.45   1.03724426902709 
   408.50   1.41185583270078 
   410.56   1.98733213288464 
   412.61   2.80287831939142 
   414.66   3.88717000053455 
   416.72   5.23120626806905 
   418.77   6.76025946848822 
   420.82   8.32472858065125 
   422.87   9.72586812464223 
   424.93  10.77144102549705 
   426.98  11.33789267574106 
   429.03  11.40617731336692 
   431.09  11.05863472497350 
   433.14  10.44549603138750 
   435.19   9.74797422753670 
   437.24   9.14534791460553 
   439.30   8.77949234065045 
   441.35   8.71689770729377 
   443.40   8.92481528909872 
   445.45   9.28799957720741 
   447.51   9.66376340573156 
   449.56   9.94042621198006 
   451.61  10.06054339610056 
   453.67  10.00130700389422 
   455.72   9.74347300306337 
   457.77   9.25671976611598 
   459.82   8.51540245361705 
   461.88   7.52385901368505 
   463.93   6.33332803739364 
   465.98   5.04131076429501 
   468.04   3.77071902806597 
   470.09   2.64330004505677 
   472.14   1.75321230533195 
   474.19   1.15279947139398 
   476.25   0.85309590965169 
   478.30   0.83349403071153 
   480.35   1.04789203814545 
   482.40   1.42680710341526 
   484.46   1.87895218889184 
   486.51   2.30472035975834 
   488.56   2.62301606779975 
   490.62   2.79821607573586 
   492.67   2.84543221261817 
   494.72   2.80952645703002 
   496.77   2.72847725257830 
   498.83   2.61159064931151 
   500.88   2.44384080409490 
   502.93   2.21036907302538 
   504.99   1.91885644684383 
   507.04   1.60325057749962 
   509.09   1.30888136843591 
   511.14   1.07140130173738 
   513.20   0.90272823378389 
   515.25   0.79003909133493 
   517.30   0.70582358488374 
   519.35   0.62282240860863 
   521.41   0.52628903107896 
   523.46   0.41823550072718 
   525.51   0.31401665082577 
   527.57   0.23438347783066 
   529.62   0.19820688697829 
   531.67   0.21815978892865 
   533.72   0.29757049254038 
   535.78   0.42764847765905 
   537.83   0.58514905041912 
   539.88   0.73421145689511 
   541.94   0.83621812350129 
   543.99   0.86582995430268 
   546.04   0.82622598210242 
   548.09   0.75677911880040 
   550.15   0.72988417146596 
   552.20   0.83805833422931 
   554.25   1.17305618825983 
   556.30   1.79585024694858 
   558.36   2.69970846834158 
   560.41   3.77967497772183 
   562.46   4.83262669050829 
   564.52   5.60650352898932 
   566.57   5.88972265096595 
   568.62   5.59917116538655 
   570.67   4.81614707270566 
   572.73   3.74818389310250 
   574.78   2.64005781574561 
   576.83   1.68526738598159 
   578.89   0.98093127782646 
   580.94   0.53407708741243 
   582.99   0.29846327540846 
   585.04   0.21290714908137 
   587.10   0.22347983464857 
   589.15   0.28816581220635 
   591.20   0.37260130780879 
   593.26   0.44652811719828 
   595.31   0.48553174974350 
   597.36   0.47665332046913 
   599.41   0.42200242875445 
   601.47   0.33712011247711 
   603.52   0.24364611439866 
   605.57   0.16209859791344 
   607.62   0.10802753624853 
   609.68   0.09547745110863 
   611.73   0.14618197779200 
   613.78   0.30021668465373 
   615.84   0.62120392752378 
   617.89   1.18459158155284 
   619.94   2.04671466307961 
   621.99   3.19683172633898 
   624.05   4.52161630561571 
   626.10   5.81731022287576 
   628.15   6.86850112078198 
   630.21   7.56421915067648 
   632.26   7.97747515839510 
   634.31   8.33711719693325 
   636.36   8.88260355784136 
   638.42   9.68776080059910 
   640.47  10.57430936764933 
   642.52  11.19155960101735 
   644.57  11.22935725150541 
   646.63  10.63443669255141 
   648.68   9.69244982646181 
   650.73   8.91969090001632 
   652.79   8.81934695594602 
   654.84   9.62784207596554 
   656.89  11.17465472422610 
   658.94  12.92488904653065 
   661.00  14.19314328505216 
   663.05  14.43209102388970 
   665.10  13.46249053818064 
   667.16  11.52591907960651 
   669.21   9.14340473016315 
   671.26   6.86799559645586 
   673.31   5.06854396424754 
   675.37   3.84447195511847 
   677.42   3.07756765940927 
   679.47   2.56342476981033 
   681.52   2.13363751209123 
   683.58   1.71668058992931 
   685.63   1.33605292331556 
   687.68   1.06871589461627 
   689.74   1.00100707174072 
   691.79   1.19926875354826 
   693.84   1.69312023466881 
   695.89   2.46647786087553 
   697.95   3.44999862466565 
   700.00   4.52347262640951 
   702.05   5.53557735968061 
   704.11   6.34162800841801 
   706.16   6.85245563902655 
   708.21   7.06970984546668 
   710.26   7.09367060689538 
   712.32   7.08676169355213 
   714.37   7.21444978971850 
   716.42   7.59697832130385 
   718.48   8.30397092306866 
   720.53   9.38414008601764 
   722.58  10.89111745508598 
   724.63  12.86056602418103 
   726.69  15.23243909371331 
   728.74  17.76803249008671 
   730.79  20.03983469971392 
   732.84  21.53954320465749 
   734.90  21.86474240306983 
   736.95  20.88041514774280 
   739.00  18.75801939520951 
   741.06  15.87996378381736 
   743.11  12.68945434808226 
   745.16   9.56972996222967 
   747.21   6.79370813591466 
   749.27   4.52309595910929 
   751.32   2.82349951186595 
   753.37   1.68616321988022 
   755.43   1.05649259274256 
   757.48   0.86766313804994 
   759.53   1.06444844651367 
   761.58   1.60554751569399 
   763.64   2.44371704872717 
   765.69   3.50333598363538 
   767.74   4.67740205168874 
   769.79   5.85347649250273 
   771.85   6.95308355002467 
   773.90   7.95445018485940 
   775.95   8.87972110353886 
   778.01   9.75825426344167 
   780.06  10.58756002626975 
   782.11  11.31407775518289 
   784.16  11.84365018885571 
   786.22  12.07152546786736 
   788.27  11.92194268805564 
   790.32  11.38122428312794 
   792.38  10.51268817888679 
   794.43   9.44728879311174 
   796.48   8.35333656612945 
   798.53   7.39279550936794 
   800.59   6.67247506758310 
   802.64   6.21296740083704 
   804.69   5.94938040693980 
   806.74   5.77629142965830 
   808.80   5.61029029165411 
   810.85   5.43724321945416 
   812.90   5.31160657102437 
   814.96   5.31904129693010 
   817.01   5.52699035990877 
   819.06   5.95169788895851 
   821.11   6.55244874965683 
   823.17   7.24774069108394 
   825.22   7.93939965174283 
   827.27   8.52691896564269 
   829.33   8.90686398019206 
   831.38   8.97172511150042 
   833.43   8.63149663299554 
   835.48   7.86457303337924 
   837.54   6.76898956703427 
   839.59   5.56435294466149 
   841.64   4.52858519300114 
   843.70   3.88975326559883 
   845.75   3.73039193455085 
   847.80   3.95264443647933 
   849.85   4.32013174273087 
   851.91   4.55887512953506 
   853.96   4.46927939059297 
   856.01   3.99902759764533 
   858.06   3.24131262868070 
   860.12   2.37267600274685 
   862.17   1.56671630018657 
   864.22   0.93264389513430 
   866.28   0.50058953513062 
   868.33   0.24218362253478 
   870.38   0.10560995694644 
   872.43   0.04190499501168 
   874.49   0.01620143337836 
   876.54   0.00980608445677 
   878.59   0.01741874663647 
   880.65   0.04531253423233 
   882.70   0.11372314043051 
   884.75   0.26023492947219 
   886.80   0.53943689356906 
   888.86   1.01455707579324 
   890.91   1.73481598660617 
   892.96   2.70357024093861 
   895.01   3.85090230140970 
   897.07   5.02884341460882 
   899.12   6.03935139435748 
   901.17   6.68810512888088 
   903.23   6.84294107736591 
   905.28   6.47383462477778 
   907.33   5.66057675642698 
   909.38   4.56697218920230 
   911.44   3.39131797461723 
   913.49   2.31085956579051 
   915.54   1.44042621164590 
   917.60   0.81937567605515 
   919.65   0.42523200600393 
   921.70   0.20449026180445 
   923.75   0.10172233437386 
   925.81   0.07958447500542 
   927.86   0.12780053917170 
   929.91   0.26362322824419 
   931.96   0.52467640138056 
   934.02   0.95055674572548 
   936.07   1.55437598317344 
   938.12   2.29165281101685 
   940.18   3.04536012302246 
   942.23   3.64775432679547 
   944.28   3.93830725861046 
   946.33   3.83257533640171 
   948.39   3.36177694942324 
   950.44   2.65793392023205 
   952.49   1.89415953330263 
   954.55   1.21670703359867 
   956.60   0.70445389242659 
   958.65   0.36763446394352 
   960.70   0.17293263226717 
   962.76   0.07332207999683 
   964.81   0.02802139105020 
   966.86   0.00965254189601 
   968.91   0.00299702792611 
   970.97   0.00083875857667 
   973.02   0.00021158274557 
   975.07   0.00000000000000 
   977.13   0.00000000000000 
   979.18   0.00000000000000 
   981.23   0.00000000000000 
   983.28   0.00000000000000 
   985.34   0.00000000000000 
   987.39   0.00000000000000 
   989.44   0.00000000000000 
   991.50   0.00000000000000 
   993.55   0.00000000000000 
   995.60   0.00229560823568 
   997.65   0.00888567644966 
   999.71   0.03100132861473 
  1001.76   0.09749160223263 
  1003.81   0.27634473780605 
  1005.87   0.70604483492825 
  1007.92   1.62596222420974 
  1009.97   3.37509275430475 
  1012.02   6.31477765800871 
  1014.08  10.64945799423005 
  1016.13  16.18803131880565 
  1018.18  22.17980159911565 
  1020.23  27.39166099234202 
  1022.29  30.49131601780169 
  1024.34  30.59363352889118 
  1026.39  27.66833600377210 
  1028.45  22.55444329905512 
  1030.50  16.57212777026321 
  1032.55  10.97542948802475 
  1034.60   6.55181860380267 
  1036.66   3.52608560603583 
  1038.71   1.71274020671275 
  1040.76   0.75799883416749 
  1042.82   0.32828600676857 
  1044.87   0.20183369079884 
  1046.92   0.28577210463721 
  1048.97   0.59967243105100 
  1051.03   1.24622703450833 
  1053.08   2.36308014785064 
  1055.13   4.04700212790410 
  1057.18   6.24720135118901 
  1059.24   8.69229915735493 
  1061.29  10.90136587252529 
  1063.34  12.32322155732836 
  1065.40  12.55638685505038 
  1067.45  11.53193560264525 
  1069.50   9.54633827169224 
  1071.55   7.12309145312419 
  1073.61   4.79068163907924 
  1075.66   2.90417773763555 
  1077.71   1.58688758614626 
  1079.77   0.78156701731651 
  1081.82   0.34696316782737 
  1083.87   0.13883456858583 
  1085.92   0.05007361499546 
  1087.98   0.01627861179880 
  1090.03   0.00477004940534 
  1092.08   0.00178049120957 
  1094.13   0.00193450091571 
  1096.19   0.00659554101578 
  1098.24   0.02063989072041 
  1100.29   0.05721768233158 
  1102.35   0.14418879536851 
  1104.40   0.33242466459219 
  1106.45   0.70387800879617 
  1108.50   1.37231691789209 
  1110.56   2.47409170688826 
  1112.61   4.13618000720744 
  1114.66   6.43051288474145 
  1116.72   9.31835125454261 
  1118.77  12.61425791403034 
  1120.82  16.00101210015793 
  1122.87  19.11399551069603 
  1124.93  21.67360196462221 
  1126.98  23.58282981056086 
  1129.03  24.93215474274815 
  1131.09  25.87441721040065 
  1133.14  26.46869885009432 
  1135.19  26.62173401921758 
  1137.24  26.19685754438383 
  1139.30  25.21578701667776 
  1141.35  23.97388298074293 
  1143.40  22.93046423092047 
  1145.45  22.41152902598208 
  1147.51  22.33513420553599 
  1149.56  22.18559666525747 
  1151.61  21.28659945966893 
  1153.67  19.20090978961214 
  1155.72  15.98567528900662 
  1157.77  12.15035525412258 
  1159.82   8.38057330143592 
  1161.88   5.22852258314543 
  1163.93   2.94553850292612 
  1165.98   1.49719080238474 
  1168.04   0.68588145396337 
  1170.09   0.28352464846643 
  1172.14   0.10564031109069 
  1174.19   0.03547852959561 
  1176.25   0.01073986056561 
  1178.30   0.00293041253751 
  1180.35   0.00000000000000 
  1182.40   0.00000000000000 
  1184.46   0.00000000000000 
  1186.51   0.00000000000000 
  1188.56   0.00000000000000 
  1190.62   0.00000000000000 
  1192.67   0.00000000000000 
  1194.72   0.00000000000000 
  1196.77   0.00000000000000 
  1198.83   0.00000000000000 
  1200.88   0.00000000000000 
  1202.93   0.00000000000000 
  1204.99   0.00000000000000 
  1207.04   0.00000000000000 
  1209.09   0.00000000000000 
  1211.14   0.00000000000000 
  1213.20   0.00000000000000 
  1215.25   0.00000000000000 
  1217.30   0.00000000000000 
  1219.35   0.00000000000000 
  1221.41   0.00000000000000 
  1223.46   0.00000000000000 
  1225.51   0.00000000000000 
  1227.57   0.00000000000000 
  1229.62   0.00000000000000 
  1231.67   0.00000000000000 
  1233.72   0.00000000000000 
  1235.78   0.00000000000000 
  1237.83   0.00000000000000 
  1239.88   0.00000000000000 
  1241.94   0.00000000000000 
  1243.99   0.00000000000000 
  1246.04   0.00000000000000 
  1248.09   0.00000000000000 
  1250.15   0.00000000000000 
  1252.20   0.00000000000000 
  1254.25   0.00000000000000 
  1256.30   0.00000000000000 
  1258.36   0.00000000000000 
  1260.41   0.00000000000000 
  1262.46   0.00000000000000 
  1264.52   0.00000000000000 
  1266.57   0.00000000000000 
  1268.62   0.00000000000000 
  1270.67   0.00000000000000 
  1272.73   0.00000000000000 
  1274.78   0.00000000000000 
  1276.83   0.00000000000000 
  1278.89   0.00000000000000 
  1280.94   0.00000000000000 
  1282.99   0.00000000000000 
  1285.04   0.00000000000000 
  1287.10   0.00000000000000 
  1289.15   0.00000000000000 
  1291.20   0.00000000000000 
  1293.26   0.00000000000000 
  1295.31   0.00000000000000 
  1297.36   0.00000000000000 
  1299.41   0.00000000000000 
  1301.47   0.00000000000000 
  1303.52   0.00000000000000 
  1305.57   0.00000000000000 
  1307.62   0.00000000000000 
  1309.68   0.00000000000000 
  1311.73   0.00000000000000 
  1313.78   0.00000000000000 
  1315.84   0.00000000000000 
  1317.89   0.00000000000000 
  1319.94   0.00000000000000 
  1321.99   0.00256211521221 
  1324.05   0.00935532770182 
  1326.10   0.03079047894550 
  1328.15   0.09134209621916 
  1330.21   0.24424326319347 
  1332.26   0.58866918616415 
  1334.31   1.27884262388150 
  1336.36   2.50414799727203 
  1338.42   4.41977307644398 
  1340.47   7.03132288421355 
  1342.52  10.08256896033479 
  1344.57  13.03174131775409 
  1346.63  15.18206302749470 
  1348.68  15.94249243204588 
  1350.73  15.08963514206789 
  1352.79  12.87355071810527 
  1354.84   9.89954075122343 
  1356.89   6.86165435103399 
  1358.94   4.28686410526387 
  1361.00   2.41405791993885 
  1363.05   1.22532909311063 
  1365.10   0.56060232479306 
  1367.16   0.23118206234864 
  1369.21   0.08593111815418 
  1371.26   0.02879014698980 
  1373.31   0.00869429539183 
  1375.37   0.00236658436294 
  1377.42   0.00000000000000 
  1379.47   0.00000000000000 
  1381.52   0.00000000000000 
  1383.58   0.00000000000000 
  1385.63   0.00000000000000 
  1387.68   0.00000000000000 
  1389.74   0.00000000000000 
  1391.79   0.00000000000000 
  1393.84   0.00000000000000 
  1395.89   0.00000000000000 
  1397.95   0.00000000000000 
  1400.00   0.00022471051949 
  1402.05   0.00085587629651 
  1404.11   0.00424540136582 
  1406.16   0.01471317323258 
  1408.21   0.04451173710247 
  1410.26   0.12280653672849 
  1412.32   0.30946331107909 
  1414.37   0.71395969803156 
  1416.42   1.51087212917561 
  1418.48   2.93914180087468 
  1420.53   5.26580887157269 
  1422.58   8.72142734133431 
  1424.63  13.41160886998814 
  1426.69  19.26288146489741 
  1428.74  26.04420169969042 
  1430.79  33.46415854601884 
  1432.84  41.26786939104920 
  1434.90  49.21922469417751 
  1436.95  56.92062071945702 
  1439.00  63.58168710632840 
  1441.06  67.97411715349503 
  1443.11  68.75250716646659 
  1445.16  65.05794165854074 
  1447.21  57.06599421380073 
  1449.27  46.09614677213695 
  1451.32  34.18231039717688 
  1453.37  23.35329783659908 
  1455.43  15.03239937518519 
  1457.48   9.81939323523209 
  1459.53   7.62991214217474 
  1461.58   7.96266940391055 
  1463.64  10.10968690328491 
  1465.69  13.25546926098031 
  1467.74  16.56177535468526 
  1469.79  19.33459095493364 
  1471.85  21.24368198675985 
  1473.90  22.43968807634517 
  1475.95  23.45090307795370 
  1478.01  24.84269930928951 
  1480.06  26.86562485574106 
  1482.11  29.33578495964915 
  1484.16  31.86737561291179 
  1486.22  34.30904370809888 
  1488.27  37.03801734962687 
  1490.32  40.80768650952483 
  1492.38  46.14039529957579 
  1494.43  52.63170495549766 
  1496.48  58.70109691343723 
  1498.53  62.09991036933026 
  1500.59  60.97088307234507 
  1502.64  54.82626080870833 
  1504.69  44.81892814873993 
  1506.74  33.17492390671439 
  1508.80  22.18785490904341 
  1510.85  13.39343474222451 
  1512.90   7.30205486532840 
  1514.96   3.61525982903466 
  1517.01   1.70009700137161 
  1519.06   0.97406954104876 
  1521.11   1.13966552577809 
  1523.17   2.26911269283518 
  1525.22   4.78380470936223 
  1527.27   9.31709494024764 
  1529.33  16.41030048599593 
  1531.38  26.06840324026181 
  1533.43  37.32582513407326 
  1535.48  48.17275606773364 
  1537.54  56.03903663799422 
  1539.59  58.75934115138335 
  1541.64  55.53416730474350 
  1543.70  47.30866588988677 
  1545.75  36.32605430033275 
  1547.80  25.14159606157715 
  1549.85  15.68427871251300 
  1551.91   8.81928440227126 
  1553.96   4.46991468968537 
  1556.01   2.04203043730085 
  1558.06   0.84085725901911 
  1560.12   0.31208969899294 
  1562.17   0.10440797697930 
  1564.22   0.03148364577393 
  1566.28   0.00855723470791 
  1568.33   0.00000000000000 
  1570.38   0.00000000000000 
  1572.43   0.00000000000000 
  1574.49   0.00000000000000 
  1576.54   0.00000000000000 
  1578.59   0.00000000000000 
  1580.65   0.00000000000000 
  1582.70   0.00000000000000 
  1584.75   0.00000000000000 
  1586.80   0.00000000000000 
  1588.86   0.00000000000000 
  1590.91   0.00000000000000 
  1592.96   0.00000000000000 
  1595.01   0.00000000000000 
  1597.07   0.00000000000000 
  1599.12   0.00000000000000 
  1601.17   0.00844481978813 
  1603.23   0.03134051434856 
  1605.28   0.10483805210007 
  1607.33   0.31610317395101 
  1609.38   0.85908445372601 
  1611.44   2.10445650115950 
  1613.49   4.64666257630827 
  1615.54   9.24782089577898 
  1617.60  16.58955640629675 
  1619.65  26.82422768542008 
  1621.70  39.09459964730797 
  1623.75  51.35744424285723 
  1625.81  60.81169751200222 
  1627.86  64.90347347757962 
  1629.91  62.43754851644557 
  1631.96  54.14032222682059 
  1634.02  42.31486107880509 
  1636.07  29.81000799892275 
  1638.12  18.92902983330228 
  1640.18  10.83407178474165 
  1642.23   5.58923219392510 
  1644.28   2.59902038001186 
  1646.33   1.08948844371572 
  1648.39   0.41209663055582 
  1650.44   0.14202416700314 
  1652.49   0.04879649984187 
  1654.55   0.02795737590599 
  1656.60   0.04309320290050 
  1658.65   0.09046295618373 
  1660.70   0.18408543975475 
  1662.76   0.33835756107688 
  1664.81   0.56233913398020 
  1666.86   0.84637335707272 
  1668.91   1.15642063205991 
  1670.97   1.43897601098494 
  1673.02   1.63873876205783 
  1675.07   1.72011129724944 
  1677.13   1.68229354405428 
  1679.18   1.56104363001268 
  1681.23   1.41947495932360 
  1683.28   1.33506324518253 
  1685.34   1.38583291715854 
  1687.39   1.63250736937966 
  1689.44   2.09433756032939 
  1691.50   2.72630274833285 
  1693.55   3.41256046383432 
  1695.60   3.99405469444572 
  1697.65   4.32414277815160 
  1699.71   4.33283959071419 
  1701.76   4.06934951981199 
  1703.81   3.70338164528863 
  1705.87   3.48370224594543 
  1707.92   3.66437998647649 
  1709.97   4.41449994928044 
  1712.02   5.73171486184141 
  1714.08   7.39385953626199 
  1716.13   8.98908126879698 
  1718.18  10.04216140219971 
  1720.23  10.20014157372714 
  1722.29   9.37987708337929 
  1724.34   7.80645055334847 
  1726.39   5.91174952508671 
  1728.45   4.17411834860501 
  1730.50   2.99393159503484 
  1732.55   2.66252104675063 
  1734.60   3.39102504585842 
  1736.66   5.32064559301760 
  1738.71   8.45283201001668 
  1740.76  12.51944112880688 
  1742.82  16.89833671917775 
  1744.87  20.69481335230159 
  1746.92  23.01669208174193 
  1748.97  23.32099311920494 
  1751.03  21.63249887392978 
  1753.08  18.49277992330983 
  1755.13  14.69497574527806 
  1757.18  10.97344344752350 
  1759.24   7.81956358878426 
  1761.29   5.46757852493477 
  1763.34   3.98006426192609 
  1765.40   3.33664515530823 
  1767.45   3.47221940505116 
  1769.50   4.26934897694307 
  1771.55   5.53221048235845 
  1773.61   6.97792558212832 
  1775.66   8.26956615369278 
  1777.71   9.09490365664330 
  1779.77   9.26637224085281 
  1781.82   8.78664194295370 
  1783.87   7.83809733118755 
  1785.92   6.69824073950867 
  1787.98   5.62594997288888 
  1790.03   4.79758600488638 
  1792.08   4.33311489601487 
  1794.13   4.38466077142546 
  1796.19   5.20934917866856 
  1798.24   7.14055765225814 
  1800.29  10.42194661631807 
  1802.35  14.96330542638277 
  1804.40  20.14643883491384 
  1806.45  24.88179260727695 
  1808.50  27.95426831896452 
  1810.56  28.55910957083831 
  1812.61  26.73933403854980 
  1814.66  23.45695118064250 
  1816.72  20.22946632833872 
  1818.77  18.50170447926218 
  1820.82  19.04654921754648 
  1822.87  21.64706981799366 
  1824.93  25.17962860864650 
  1826.98  28.07071959459005 
  1829.03  28.94492128133398 
  1831.09  27.17854063395736 
  1833.14  23.09346561755344 
  1835.19  17.71345490490611 
  1837.24  12.25359379336917 
  1839.30   7.64152277282324 
  1841.35   4.29622336767094 
  1843.40   2.17716269489254 
  1845.45   0.99447073051754 
  1847.51   0.40943995101758 
  1849.56   0.15355739772794 
  1851.61   0.05682925057778 
  1853.67   0.03547263751292 
  1855.72   0.06510986546919 
  1857.77   0.16616149065738 
  1859.82   0.40833495155537 
  1861.88   0.90448177518628 
  1863.93   1.80584377264938 
  1865.98   3.24980738487723 
  1868.04   5.27147506513168 
  1870.09   7.70732694049552 
  1872.14  10.15716475962128 
  1874.19  12.06530493167419 
  1876.25  12.91817601763295 
  1878.30  12.46697771040390 
  1880.35  10.84471787233386 
  1882.40   8.51454530720845 
  1884.46   6.05337578481250 
  1886.51   3.97975064890841 
  1888.56   2.66884438530534 
  1890.62   2.46224544424747 
  1892.67   3.88053740880159 
  1894.72   7.87064514665852 
  1896.77  15.85867041175658 
  1898.83  29.47258932235351 
  1900.88  49.81690658404134 
  1902.93  76.59253525210808 
  1904.99 107.50264759410489 
  1907.04 138.55335635648242 
  1909.09 165.31531627438491 
  1911.14 184.54436659015497 
  1913.20 195.17844924530053 
  1915.25 198.15670841609005 
  1917.30 195.35298529236613 
  1919.35 188.48214899616568 
  1921.41 178.61239312478725 
  1923.46 166.42891340277055 
  1925.51 152.72876523366654 
  1927.57 138.71257360598250 
  1929.62 125.83930205458566 
  1931.67 115.40289356233737 
  1933.72 108.17779209153802 
  1935.78 104.33775546276391 
  1937.83 103.52307638419285 
  1939.88 104.76813592275759 
  1941.94 106.36819806741416 
  1943.99 105.97890984062488 
  1946.04 101.41307281413177 
  1948.09  91.79517204612942 
  1950.15  78.38010854013544 
  1952.20  64.32951047117675 
  1954.25  53.50875204275978 
  1956.30  48.94289510739850 
  1958.36  51.59857016110249 
  1960.41  60.14104328596030 
  1962.46  71.47674321962070 
  1964.52  81.98263927555448 
  1966.57  89.01654051287741 
  1968.62  92.13147192789702 
  1970.67  93.50276718167954 
  1972.73  97.06556552129504 
  1974.78 106.61848607597446 
  1976.83 123.62935189574807 
  1978.89 146.12299294564929 
  1980.94 169.55295359633320 
  1982.99 189.47630596794536 
  1985.04 204.51975894052021 
  1987.10 217.60107617782694 
  1989.15 234.32798193023746 
  1991.20 259.34149761086292 
  1993.26 292.75103154357458 
  1995.31 328.76806924233188 
  1997.36 357.30144727712138 
  1999.41 367.80597739922746 
  2001.47 353.57132465473563 
  2003.52 314.53948255047567 
  2005.57 257.39416158175652 
  2007.62 192.91962127521623 
  2009.68 132.00231676321869 
  2011.73  82.24063969177780 
  2013.78  46.55537290297029 
  2015.84  23.90875575451539 
  2017.89  11.12335428067673 
  2019.94   4.68332129405399 
  2021.99   1.78300769251763 
  2024.05   0.61056315945484 
  2026.10   0.18998396112013 
  2028.15   0.05178818213873 
  2030.21   0.01318694383719 
  2032.26   0.00000000000000 
  2034.31   0.00000000000000 
  2036.36   0.00000000000000 
  2038.42   0.00000000000000 
  2040.47   0.00000000000000 
  2042.52   0.00000000000000 
  2044.57   0.00000000000000 
  2046.63   0.00000000000000 
  2048.68   0.00000000000000 
  2050.73   0.00810514568295 
  2052.79   0.02935807884286 
  2054.84   0.09584987031142 
  2056.89   0.28206715405841 
  2058.94   0.74818775091750 
  2061.00   1.78881637114911 
  2063.05   3.85494350637991 
  2065.10   7.48802636635481 
  2067.16  13.11033538855244 
  2069.21  20.68984937448957 
  2071.26  29.43052069875808 
  2073.31  37.73424395424271 
  2075.37  43.60842983937551 
  2077.42  45.42577408470473 
  2079.47  42.65120579005004 
  2081.52  36.09585891389833 
  2083.58  27.53471193591326 
  2085.63  18.93218694107755 
  2087.68  11.73324450720910 
  2089.74   6.55439405221992 
  2091.79   3.30022891098568 
  2093.84   1.49779601671383 
  2095.89   0.61271479612783 
  2097.95   0.22592336850176 
  2100.00   0.07508635655800 
