#
# Number of atoms
#
 84
#
# The current total energy in Eh
#
  -4463.427792044601
#
# The current gradient in Eh/bohr
#
       0.000003654949
       0.000006657657
      -0.000011639150
       0.000005041429
      -0.000009271452
       0.000008827990
      -0.000000684518
       0.000000949044
      -0.000006566506
      -0.000006244787
       0.000001452117
       0.000010799731
       0.000002337302
      -0.000003582819
      -0.000005833753
       0.000001586036
      -0.000003186697
      -0.000005699659
      -0.000001227165
      -0.000001988393
       0.000001350571
      -0.000006216201
      -0.000008229244
      -0.000002853472
      -0.000006864054
      -0.000003500437
      -0.000000444390
       0.000002523597
      -0.000000290829
      -0.000000834833
       0.000005663169
       0.000002386239
      -0.000007904683
      -0.000005088202
       0.000004796008
       0.000003516736
      -0.000002921906
      -0.000001088673
       0.000001077211
       0.000001189451
      -0.000002351878
      -0.000002753770
       0.000001580338
      -0.000001745950
       0.000002021319
      -0.000009036517
      -0.000002254652
       0.000006346333
       0.000003798215
       0.000007293220
      -0.000001187935
       0.000007896438
       0.000004060115
      -0.000005732221
      -0.000000326953
       0.000002343587
       0.000002088894
       0.000002696903
       0.000004072590
      -0.000000173845
      -0.000000347936
       0.000001733988
       0.000000980591
      -0.000001784459
       0.000000619997
       0.000005031543
      -0.000003131918
       0.000001676452
       0.000000728748
       0.000000934647
      -0.000000222555
       0.000001968118
      -0.000003333255
      -0.000002604974
      -0.000005585782
      -0.000003950248
       0.000000950431
      -0.000007515786
       0.000008252669
      -0.000007072005
      -0.000003002140
       0.000000300414
       0.000002823813
      -0.000007609728
      -0.000001282228
      -0.000000551563
       0.000003279374
       0.000004118512
      -0.000000499913
      -0.000005933345
       0.000002047821
      -0.000000440462
       0.000000322234
      -0.000000556474
       0.000002161911
       0.000005931799
      -0.000001490208
       0.000002005389
      -0.000005515280
       0.000000997814
      -0.000002027802
      -0.000002514181
       0.000002169405
      -0.000000108288
      -0.000004623162
       0.000001150766
       0.000000445149
       0.000000612990
      -0.000001206821
       0.000004793591
      -0.000002122747
       0.000003446285
       0.000001063882
       0.000002459811
      -0.000002531611
       0.000003576279
      -0.000003665337
       0.000003041380
       0.000001300227
      -0.000006429371
      -0.000005155540
      -0.000000948398
       0.000008131720
      -0.000014239937
       0.000006217356
       0.000001855471
       0.000001738745
       0.000001380886
       0.000002894906
      -0.000003223972
      -0.000002510976
       0.000002706623
      -0.000004937548
       0.000002981308
      -0.000000852861
      -0.000002436624
       0.000001322689
      -0.000002895009
       0.000002009501
      -0.000002407000
       0.000003855627
       0.000003419826
      -0.000002800454
       0.000001052136
       0.000002070216
      -0.000004543950
      -0.000003711425
      -0.000000746135
       0.000000070958
       0.000000539699
      -0.000002102077
       0.000002221683
      -0.000000754603
      -0.000000867301
      -0.000000913014
      -0.000003377878
       0.000002181728
       0.000000068841
       0.000001027532
       0.000001078979
      -0.000001678104
      -0.000000845081
       0.000000084277
       0.000001382392
      -0.000001085222
      -0.000000160240
      -0.000000065529
       0.000001013868
       0.000001625616
       0.000002935376
       0.000000702863
       0.000000006658
      -0.000000959324
      -0.000001721372
      -0.000002421790
       0.000001087852
      -0.000001860931
      -0.000001717364
       0.000002185398
      -0.000000400983
      -0.000000919911
      -0.000004325831
       0.000003206623
      -0.000001240352
       0.000002624969
       0.000004474855
       0.000001049463
      -0.000001061184
       0.000003961550
       0.000003387636
      -0.000004130973
      -0.000000420832
       0.000001709819
       0.000001297162
       0.000006512128
       0.000002978890
       0.000000599151
       0.000000614685
       0.000003730111
      -0.000001583657
       0.000002168516
      -0.000000169016
       0.000000885244
       0.000000853376
      -0.000005933657
       0.000003677317
      -0.000001574571
       0.000003193334
      -0.000001227692
       0.000001863328
       0.000003637382
      -0.000003626525
      -0.000001612659
      -0.000003027958
      -0.000000938957
       0.000003330998
      -0.000008734909
       0.000000706530
       0.000000614728
       0.000003615318
      -0.000000800395
       0.000004552862
       0.000001504240
       0.000002052326
       0.000003486741
      -0.000000933330
       0.000002316733
       0.000004035233
      -0.000004116486
      -0.000008254261
      -0.000010560652
       0.000001093726
       0.000003732726
       0.000004639979
       0.000002948346
       0.000001954407
       0.000004749721
       0.000003270677
       0.000002553567
      -0.000001898494
       0.000003636544
      -0.000001960820
       0.000002182289
      -0.000003123988
       0.000001282098
      -0.000002912540
       0.000003945183
       0.000001912441
       0.000002642604
       0.000006089780
      -0.000008855665
       0.000007611410
#
# The atomic numbers and current coordinates in Bohr
#
  40    -0.2162152    4.0311064    1.7364268 
  40     1.5431927   -4.7752504   -0.4396887 
  40     3.5805857   -1.2205590    4.3023559 
  40    -2.5210122    0.3220120   -3.0123584 
  40     4.4497490    1.0436260   -2.3345540 
  40    -2.7560338   -1.4387506    3.7295736 
   8    -2.8148786    1.1079972    0.8256008 
   8     3.8945386   -1.5994818    0.3655743 
   8     0.5271854   -3.5317756    3.0123621 
   8     1.0132595    2.3134412   -1.5227689 
   8    -0.1647729   -2.5369970   -2.7382702 
   8     0.4849962    0.9858456    4.0720752 
   8    -2.7445979    5.1139588    4.7891889 
   8    -3.0141432    6.3389262   -0.2030524 
   8     2.8968487    5.2048417    4.2066895 
   8     2.0374714    7.0762859   -0.1647779 
   8    -1.5925517   -7.1475983    0.1398416 
   8    -3.6973506   -5.6539931   -5.6649208 
   8     3.9082158   -7.6465941    1.8656216 
   8     4.4950508   -5.6795234   -3.0783555 
   8     2.2633432   -2.5345280    7.9384045 
   8     4.5356282    2.1467559    6.6034876 
   8     5.5160967   -4.8843620    4.5813576 
   8     7.4957995   -0.0830265    3.4555084 
   8    -6.0950634   -1.3605962   -1.7825778 
   8    -4.4044655    3.9851628   -3.3902061 
   8    -4.1532072   -1.5441511   -6.2915150 
   8    -0.6568853    1.9297635   -6.4112285 
   8     3.5401322    2.0706756   -6.1146139 
   8     5.3256590    4.9408133   -1.7305211 
   8     5.9554728   -2.0356326   -4.5602136 
   8     8.1275906    1.0401887   -0.5599399 
   8    -6.7069263   -1.4666670    2.3974063 
   8    -4.4555357    1.4899219    6.0831496 
   8    -4.0107799   -5.3696569    3.0751954 
   8    -1.9331910   -2.6479563    7.5856573 
   6    -4.1556922    3.8244315    6.1828151 
   6    -4.4137645    5.9315218   -2.0582991 
   6     3.9141213    4.3731347    6.1875517 
   6     4.0622835    6.9256413   -1.3251361 
   6    -3.2723373   -7.2221627    1.8322587 
   6    -4.2285453   -3.7868295   -7.0125526 
   6     5.2859530   -7.0556327    3.7245384 
   6     5.8699040   -4.3982758   -4.5028454 
   6     0.0876359   -2.9994578    8.7470229 
   6     8.8595913    0.3824798    1.5940349 
   6    -7.4481269   -1.3795114    0.1659154 
   6     1.4683330    2.4762707   -7.2143994 
   1    -4.7941758   -4.1123830   -8.9844474 
   1     6.3583545   -8.5881048    4.6137206 
   1     4.3252885    5.7605619    7.6739271 
   1    -5.7617376    7.4230373   -2.5632183 
   1     7.0972740   -5.4318730   -5.8100694 
   1     1.5866047    3.3943499   -9.0693704 
   1     4.8713689    8.6836574   -2.0698152 
   1    10.9093017    0.2337951    1.8658650 
   1    -4.1554992   -9.0594396    2.1781075 
   1    -9.5006754   -1.3412506   -0.1324967 
   1    -5.2313554    4.8477668    7.6292549 
   1    -0.0482134   -3.7806294   10.6612256 
  13     2.5485885  -17.8629185   -4.5656486 
  13     0.0735881  -16.8203608    0.5523550 
   1     2.5200364  -14.9633296    0.2416815 
   1    -2.5548675  -15.4284149    0.0018409 
   1     0.5551210  -18.5086649   -2.1053941 
   1     1.3056456  -19.2228649   -6.9065362 
   1     2.0761085  -14.7918960   -4.6780634 
   1     0.2800373  -18.6369729    2.9010473 
  13     3.1504746  -11.7418857    1.2250265 
   1     2.9249078  -10.9327499   -1.7735145 
   1     0.6610455  -11.5826384    2.9099860 
   1     5.3049723  -18.3788541   -3.5449683 
  13     1.5164850  -11.5354353   -4.9247624 
   1    -0.9032108  -12.2157541   -2.7072119 
   1     4.0500691  -10.7636912   -6.3260677 
   1     5.8717842  -12.3939309    2.2989826 
  13    -3.9129150  -12.9968707   -2.8187306 
   1    -5.6132188  -11.8707163   -0.6277824 
   1    -4.4735200  -15.3487710   -4.5602659 
  13    -2.4004238   -8.8455099   -6.7152185 
   1    -2.5308994   -8.4002706   -9.6778055 
   1    -0.7149658  -11.8450362   -7.1619120 
   1     0.1497050   -8.3850591   -4.8029913 
   1    -4.4769899  -10.5121471   -5.0839254 
