#
# Number of atoms
#
 84
#
# The current total energy in Eh
#
  -4464.503534516433
#
# The current gradient in Eh/bohr
#
       0.000117795610
      -0.000018131299
       0.000082493888
       0.000053057305
      -0.000065535442
       0.000039089398
       0.000005034102
      -0.000052012589
       0.000071799319
       0.000060087282
      -0.000057959010
      -0.000096029119
      -0.000176926278
      -0.000087436401
       0.000032639110
       0.000163795396
      -0.000019712861
      -0.000035164835
       0.000007748405
       0.000006234872
       0.000008580973
      -0.000078166174
      -0.000006605242
      -0.000076603499
      -0.000000053592
      -0.000030243595
      -0.000007918021
      -0.000024947638
      -0.000038124703
       0.000068577389
       0.000010803715
       0.000171009038
       0.000019252503
      -0.000052779846
       0.000074146099
      -0.000059762933
       0.000027395885
       0.000087445305
      -0.000055195313
      -0.000011170831
      -0.000038240211
       0.000030454063
      -0.000033864801
      -0.000009881934
      -0.000061965881
      -0.000041388617
      -0.000061007049
       0.000008800750
      -0.000014151764
       0.000027270104
       0.000026830755
      -0.000052694318
       0.000045306494
      -0.000020244102
      -0.000001895106
      -0.000016950146
      -0.000020545779
       0.000039780867
      -0.000001889853
      -0.000029829370
       0.000022252738
      -0.000027699401
      -0.000002958068
       0.000005089368
       0.000011954062
       0.000028539263
       0.000011829102
      -0.000016490022
      -0.000005347096
      -0.000092978455
       0.000043550947
      -0.000001121956
      -0.000008673128
      -0.000000026222
      -0.000027746479
       0.000028730020
      -0.000056520460
       0.000032305954
      -0.000109236090
       0.000068051669
       0.000047304951
       0.000044848196
      -0.000022858428
       0.000035388124
       0.000054172855
       0.000013730345
      -0.000011389891
       0.000018887098
      -0.000065174589
      -0.000031407406
      -0.000019315717
       0.000046393579
       0.000071929997
       0.000103517104
       0.000012043079
      -0.000006022276
      -0.000012114654
      -0.000032233690
       0.000010967479
      -0.000022852620
       0.000061999824
      -0.000001508590
      -0.000042692365
       0.000032672058
       0.000040140097
      -0.000022750079
      -0.000008895350
      -0.000032904407
      -0.000042084839
      -0.000103672586
       0.000049441310
      -0.000037651742
       0.000031771752
      -0.000021035069
       0.000017922327
       0.000011956838
       0.000039495901
      -0.000031438871
       0.000138896501
       0.000043299715
       0.000002373542
      -0.000008913312
      -0.000048853056
       0.000120800105
      -0.000057189175
       0.000032465515
       0.000056879068
       0.000043160099
       0.000095110412
       0.000046176385
       0.000065577483
      -0.000078105436
      -0.000034246934
       0.000011247703
      -0.000015854444
      -0.000004446516
      -0.000004876355
      -0.000017557621
      -0.000019644191
       0.000007396607
      -0.000018445499
      -0.000067826805
       0.000012844511
      -0.000027565114
      -0.000020828702
       0.000032054047
      -0.000008054920
      -0.000027386346
      -0.000019863086
      -0.000040444934
      -0.000001730958
      -0.000004610281
       0.000001084599
       0.000008434567
       0.000002612500
       0.000009038251
      -0.000024459229
      -0.000053794705
       0.000013417080
       0.000021587973
      -0.000001035811
       0.000005479581
       0.000024508779
      -0.000030859164
      -0.000011937308
       0.000006699490
      -0.000007755793
      -0.000004000301
      -0.000011916412
       0.000001091164
       0.000003181005
       0.000003089297
      -0.000003488327
       0.000009846822
       0.000018915613
       0.000029392825
      -0.000005079570
       0.000013760385
      -0.000001984516
      -0.000000194077
       0.000014064632
       0.000073056010
       0.000092652522
       0.000035083019
       0.000085372733
      -0.000024849631
       0.000080913794
      -0.000000762560
       0.000009997459
       0.000012140213
      -0.000033912290
       0.000030911223
      -0.000037289582
       0.000003238005
      -0.000138073251
       0.000018893707
      -0.000028599342
      -0.000018189040
      -0.000022194715
      -0.000037082900
      -0.000059569188
      -0.000019400079
      -0.000021827822
       0.000042522191
      -0.000054552815
      -0.000048260838
      -0.000073483763
      -0.000025795391
      -0.000062266506
       0.000022744010
      -0.000002468298
       0.000067497909
       0.000033458338
      -0.000006519931
      -0.000010602308
      -0.000012527832
       0.000032239417
       0.000109329646
       0.000050815098
       0.000062933005
      -0.000025995365
      -0.000005880099
       0.000035813577
       0.000003462775
       0.000009128548
       0.000000347598
      -0.000018046893
      -0.000002704062
      -0.000107512709
       0.000033087489
       0.000058526444
       0.000023006417
       0.000049126735
       0.000006859627
       0.000039504144
      -0.000081098920
      -0.000063708043
       0.000059619989
      -0.000040257609
      -0.000013976851
      -0.000004214115
       0.000007633558
       0.000017367343
      -0.000010066693
      -0.000066743793
      -0.000014758092
      -0.000105814736
      -0.000037543913
      -0.000029155217
       0.000007610590
       0.000023058269
       0.000005730383
#
# The atomic numbers and current coordinates in Bohr
#
  40    -0.3787540    4.2359760    2.2727470 
  40     1.5580884   -4.4133053   -1.4826921 
  40     4.0201136   -1.1890570    3.6805622 
  40    -2.8281320    0.9207172   -2.8398578 
  40     3.7254932    1.6195772   -2.8443809 
  40    -2.4915799   -1.7855715    3.7300134 
   8    -2.9412417    1.1028064    1.1004369 
   8     4.0720302   -1.3145932   -0.2725660 
   8     0.7691775   -3.4960933    2.2668886 
   8     0.4117321    3.1750630   -1.4194544 
   8     0.4432566   -1.1626108   -3.2508970 
   8     0.7059901    0.8722240    4.0325688 
   8    -2.9613550    4.7202866    5.5474136 
   8    -3.5072832    6.6190201    0.7369147 
   8     2.6956660    5.3135155    4.9542349 
   8     1.8380402    7.5243220    0.6360210 
   8    -1.7233485   -6.7918051   -0.5504800 
   8    -1.0813412   -5.5176305   -5.4015177 
   8     4.4920480   -6.8846332    0.1654349 
   8     4.3178363   -4.8134505   -4.6796031 
   8     3.0876664   -3.0708985    7.3148961 
   8     4.9515770    1.9645589    6.4388138 
   8     6.1785776   -4.7986732    3.4989446 
   8     7.6763303    0.5941087    2.5669648 
   8    -6.3844358   -1.0395269   -1.8077470 
   8    -5.0248305    4.4885062   -2.6582659 
   8    -3.7237474   -2.1464203   -5.8269751 
   8    -1.8727860    2.8613341   -6.4600783 
   8     2.3998479    3.1950636   -6.5057840 
   8     4.7238065    5.6016478   -1.9089023 
   8     5.5128449   -0.8398645   -5.7282359 
   8     7.8014195    1.7780629   -1.5653071 
   8    -6.5574178   -2.0970147    2.3521019 
   8    -4.3306914    0.7786093    6.5182706 
   8    -3.5837128   -5.8883406    3.1975357 
   8    -1.1906381   -3.2397027    7.4416267 
   6    -4.2285736    3.1493202    6.8476796 
   6    -4.9918785    6.3330798   -1.1195157 
   6     4.0957361    4.1907544    6.5662857 
   6     3.5923171    7.5214747   -0.9843764 
   6    -2.9630358   -7.3769070    1.4483250 
   6    -2.7725490   -4.1828494   -6.5611314 
   6     5.9889386   -6.6822241    2.0320814 
   6     5.5030636   -3.2198959   -6.0227227 
   6     0.9971266   -3.6484792    8.3372719 
   6     8.8045944    1.1627181    0.5158774 
   6    -7.5415220   -1.5581651    0.2463141 
   6     0.2122667    3.5285282   -7.4342178 
   1    -3.4582123   -4.9675916   -8.4231346 
   1     7.2745139   -8.3377266    2.4081144 
   1     4.6549327    5.3324904    8.2791686 
   1    -6.4314473    7.8698861   -1.4437279 
   1     6.6576443   -3.9945061   -7.6351924 
   1     0.1168566    4.5170275   -9.3192551 
   1     4.2623953    9.4251253   -1.6740213 
   1    10.9362393    1.1458262    0.5784373 
   1    -3.5883942   -9.4036087    1.6076325 
   1    -9.6714556   -1.5688136    0.1472453 
   1    -5.3767204    3.9454592    8.4557283 
   1     1.0912095   -4.6132632   10.2332372 
  13     1.9351051  -18.9361387   -3.0169635 
  13    -2.3861944  -16.9576604    0.8468385 
   1    -1.2831045  -14.2221220    2.2119671 
   1    -3.9938891  -16.0186878   -1.6120950 
   1     0.4368683  -18.1676546   -0.1281566 
   1    -0.1843948  -20.3619199   -4.6870529 
   1     2.3466763  -15.9494018   -4.0623794 
   1    -3.5673495  -18.7755449    2.9820044 
  13     1.8430906  -13.1359992    2.7436622 
   1     2.7078762  -12.7335631   -0.2848036 
   1     1.2879713  -10.4669781    4.1420515 
   1     4.5894721  -20.0877815   -2.0499289 
  13     2.5287256  -12.5377600   -3.8361981 
   1    -0.7690395  -12.7789095   -2.8481509 
   1     5.5589488  -12.1874105   -4.0404687 
   1     3.3601030  -15.4588989    4.0254599 
  13    -3.6348023  -12.8312133   -4.3179412 
   1    -5.7951634  -11.4648547   -2.6281723 
   1    -3.8796887  -14.9859713   -6.4611582 
  13     0.1892633   -8.9028662   -6.6574524 
   1     1.1603530   -7.9939544   -9.4067742 
   1     1.3998896  -12.1738855   -6.9128355 
   1     1.6944238   -9.0583914   -3.7702889 
   1    -2.7627792  -10.1557219   -6.3372888 
