#
# Number of atoms
#
 32
#
# The current total energy in Eh
#
  -1951.205034031447
#
# The current gradient in Eh/bohr
#
       0.000002494634
      -0.000007564917
       0.000005013699
       0.000010522949
       0.000008813964
       0.000010366356
      -0.000001290133
       0.000000995456
      -0.000001897098
      -0.000009375479
       0.000001350041
       0.000006591532
      -0.000007721709
       0.000003331161
      -0.000001262019
       0.000008512270
      -0.000000034924
      -0.000000357491
       0.000007860941
      -0.000004867887
       0.000005493285
      -0.000002659849
       0.000002551285
       0.000000211311
       0.000000574207
      -0.000003046827
       0.000007265984
       0.000002211775
      -0.000000702949
       0.000001910721
       0.000000720879
       0.000003941748
      -0.000004779324
       0.000000237051
       0.000000152911
      -0.000001464454
      -0.000000367556
       0.000003510352
      -0.000001079957
      -0.000003214206
       0.000004927757
       0.000001355296
      -0.000006104748
       0.000002032934
      -0.000006669186
      -0.000007410688
      -0.000001071315
      -0.000003790508
       0.000002534991
      -0.000007862726
      -0.000001733939
       0.000004596839
       0.000002292581
       0.000002953270
       0.000003984686
       0.000006540691
      -0.000000055063
      -0.000003149413
      -0.000004487222
      -0.000004639057
      -0.000004998894
      -0.000001991922
      -0.000002287779
       0.000001654838
      -0.000000877071
      -0.000003812366
       0.000005321792
      -0.000004615712
      -0.000004654769
       0.000003501628
      -0.000001357776
       0.000004397989
      -0.000002277386
      -0.000008395332
       0.000003196169
      -0.000009453917
      -0.000000619074
      -0.000006111607
      -0.000001650709
       0.000005295506
      -0.000004743073
       0.000004626378
      -0.000005304305
       0.000000764680
      -0.000001865288
      -0.000007101688
       0.000000966821
       0.000000387617
       0.000007865897
       0.000002333723
       0.000001589819
       0.000002424116
      -0.000001590836
       0.000000206680
       0.000003875255
      -0.000001892266
#
# The atomic numbers and current coordinates in Bohr
#
  13    -0.4482567    4.6191712    1.1655035 
  13    -5.6123757    2.1125013    2.4815834 
  13    -0.3299091   -0.4495697    1.6305111 
  13     4.9562502    2.3142608    1.5359376 
  13     0.3261591   -1.1505775    7.7962438 
  13    -4.1040715    3.1649724    8.5518113 
  13     4.2097475    3.7150844    7.5440159 
  13     0.5693924    2.5699285   12.3787671 
   1     1.2002304    2.7157103   15.2731930 
   1     0.7863341   -0.2472350   11.0880697 
   1     2.3671701    4.1683633   10.4688631 
   1    -2.2871233    3.3352677   11.5444216 
   1    -2.8386223    5.5918445    7.3801086 
   1    -6.5928870    2.5440769   10.0435331 
   1    -5.7164292    2.2710956    5.5268975 
   1    -8.2064666    1.7969723    1.0767405 
   1    -2.3881438    0.4665497    7.8810252 
   1    -3.6362724   -0.2325890    2.0163745 
   1    -0.1109430   -1.5755251    4.6041054 
   1    -0.4056564   -2.8047128   -0.1805697 
   1     2.9952125   -0.0943368    1.5855046 
   1     5.7069599    2.6327777    4.4808332 
   1     7.1928190    2.0050740   -0.3886109 
   1     6.7468314    3.1542753    8.9817263 
   1     0.6671364   -3.9975682    8.5388260 
   1     2.5854639    0.9307700    7.0936634 
   1    -0.5624917    7.5115078    0.5737083 
   1    -3.8807676    4.4823209    1.5126581 
   1     2.9727861    4.5914724    0.8722842 
   1    -0.5717874    2.1029867   -0.7380378 
   1     2.9481908    6.0918328    6.2727303 
   1    -0.2322037    2.6465300    3.5699057 
