#
# Number of atoms
#
 64
#
# The current total energy in Eh
#
  -3243.920595743360
#
# The current gradient in Eh/bohr
#
       0.000002057900
       0.000008161268
       0.000003572487
       0.000005497928
      -0.000014295288
       0.000003259268
      -0.000000761284
       0.000003425931
       0.000008001616
      -0.000007394385
       0.000007944517
       0.000008769624
      -0.000001310308
       0.000013764432
      -0.000017050196
       0.000002747866
      -0.000001551177
       0.000008963202
      -0.000001931728
      -0.000006057951
      -0.000004616525
      -0.000002299197
       0.000002421722
      -0.000001078975
       0.000003481113
       0.000002981977
      -0.000004826228
       0.000003798544
      -0.000006443262
       0.000002326965
       0.000005096392
      -0.000002173064
       0.000003011583
      -0.000002646119
      -0.000005600298
      -0.000007611280
       0.000004571898
       0.000006619866
      -0.000002865521
       0.000004597258
       0.000005054426
       0.000000402535
       0.000002595897
       0.000005378354
      -0.000002602703
      -0.000000630516
      -0.000001916423
      -0.000007476528
      -0.000007757634
      -0.000004823540
       0.000007547142
      -0.000006807996
       0.000002168854
      -0.000002223919
      -0.000005987794
       0.000002433917
       0.000004393629
      -0.000000626239
      -0.000006091967
       0.000000864859
       0.000000556466
      -0.000001912650
       0.000007418202
       0.000000336698
       0.000002917222
      -0.000004163690
      -0.000002251781
      -0.000004146158
       0.000007067239
       0.000002902252
       0.000000959051
      -0.000005865599
       0.000001389612
       0.000005043007
      -0.000002569136
       0.000003608651
       0.000002525828
      -0.000000983640
      -0.000000568957
       0.000000359780
      -0.000009921137
      -0.000002174046
      -0.000001460047
      -0.000008217368
       0.000002465990
      -0.000000775736
      -0.000004469075
       0.000002566247
      -0.000006316680
      -0.000003579521
       0.000008424840
      -0.000006032433
      -0.000004054436
      -0.000005931710
      -0.000013634564
       0.000006725294
      -0.000001733479
       0.000006210808
      -0.000001774665
       0.000000775685
       0.000007911093
      -0.000003153425
      -0.000008263685
       0.000003118384
       0.000007337863
      -0.000003319532
       0.000006822320
       0.000007699704
       0.000000261986
       0.000001607716
      -0.000000452836
       0.000003444303
      -0.000001700848
      -0.000005328695
      -0.000001040257
       0.000002568181
      -0.000001907644
       0.000001186152
       0.000000028735
      -0.000000831729
       0.000004936011
       0.000004067405
      -0.000000139946
       0.000004032002
      -0.000010101027
       0.000012741442
      -0.000006249877
       0.000001652328
      -0.000005367282
      -0.000005400461
      -0.000002481715
       0.000004300767
      -0.000001427769
       0.000006408781
      -0.000004607987
       0.000003789777
       0.000000405018
      -0.000003706598
       0.000003928067
      -0.000000769902
       0.000005255666
      -0.000000967863
      -0.000009091137
       0.000002643476
      -0.000001750894
       0.000000086881
       0.000000287665
      -0.000001446490
      -0.000000577959
       0.000008929942
       0.000001092916
       0.000002585516
      -0.000001316070
       0.000003293344
       0.000001874633
      -0.000004482841
      -0.000002309137
      -0.000005814993
       0.000000560532
       0.000001473019
      -0.000005286640
      -0.000004219941
       0.000003647043
      -0.000001751502
      -0.000005876115
      -0.000000408889
      -0.000003277576
      -0.000001416706
      -0.000003647410
       0.000002525734
       0.000005803768
       0.000000128329
       0.000003635486
      -0.000000343963
       0.000002617379
       0.000006612457
      -0.000000989633
      -0.000000754763
       0.000003627460
       0.000002879624
      -0.000000266339
      -0.000011093348
      -0.000001914562
      -0.000009175853
      -0.000000690305
      -0.000004188350
       0.000006807802
       0.000000213861
       0.000006795885
      -0.000000867036
       0.000001745346
       0.000008634503
#
# The atomic numbers and current coordinates in Bohr
#
  40    -0.0662728    3.2110228    2.8102074 
  40    -0.0787607   -4.3306353   -2.5523987 
  40     2.6493946   -2.3453438    3.7286569 
  40    -2.7984738    2.1335023   -2.7745643 
  40     3.4051964    1.7843241   -2.2479408 
  40    -3.5438860   -2.0415792    3.0385443 
   8    -2.9097489    1.1158202    0.9608912 
   8     2.9531106    0.7138624    1.4300277 
   8    -0.2651380   -3.5795742    1.1418268 
   8     0.3197440    3.8090313   -1.2161757 
   8     0.1315821   -0.5895514   -3.0293877 
   8    -0.4570172   -0.4047930    4.7192536 
   8    -2.9916480    3.7484410    5.8354992 
   8    -2.5102846    6.5660824    1.9130689 
   8     2.3026399    3.5034750    6.2988669 
   8     2.7514259    6.3157987    2.3653568 
   8    -2.4814612   -7.4696716   -1.5318590 
   8    -3.2459414   -3.9852526   -5.0245906 
   8     3.0782785   -6.6226554   -1.5626003 
   8     2.2363323   -4.3527565   -5.9171507 
   8     1.1876861   -4.9963837    6.5582439 
   8     4.1307051   -0.2539331    6.8808762 
   8     4.2109959   -5.9865635    2.4316090 
   8    10.6205603    0.2709989    1.0108623 
   8    -6.6786979    0.7493374   -2.2847765 
   8    -4.5069020    5.6502198   -1.6959859 
   8    -3.9146089   -0.0206805   -6.2698032 
   8    -1.3783851    4.3231399   -6.0323756 
   8     2.7861666    3.7572099   -5.8099553 
   8     5.0867763    5.3545633   -1.0197457 
   8     4.7387682   -1.0921484   -5.0223981 
   8     7.3476654    0.8937689   -1.4966686 
   8    -7.3005407   -1.3032577    1.3501772 
   8    -5.3411098    0.2327197    5.8931353 
   8    -4.9507276   -5.6061200    1.3167096 
   8    -2.9894849   -4.7698214    6.1081352 
   6    -4.6575264    2.3573473    6.7206226 
   6    -3.9321441    7.0761152    0.1256033 
   6     3.5720527    1.9649443    7.5306173 
   6     4.3483854    6.7976944    0.7179378 
   6    -4.2196885   -7.4654881    0.0823532 
   6    -3.9725755   -2.3301473   -6.5900131 
   6     4.1883355   -7.2353959    0.4513723 
   6     3.9901889   -2.8307022   -6.4098623 
   6    -1.0267629   -5.4689552    7.2217378 
   6     9.3777682    1.5692990   -0.5319183 
   6    -8.0256575   -0.0812968   -0.5227974 
   6     0.8329586    4.7373996   -6.7233071 
   1    -4.7374624   -3.0403293   -8.3818733 
   1     5.2251748   -9.0264073    0.4293060 
   1     4.3117232    2.5937531    9.3635815 
   1    -4.8108124    8.9559608    0.1190274 
   1     4.9498911   -3.0880341   -8.2299988 
   1     1.0998163    6.0633677   -8.2957633 
   1     5.2464025    8.6679539    0.7956900 
   1    10.1853827    3.4033090   -1.0621048 
   1    -5.1864836   -9.2714226    0.4047814 
   1   -10.0655875    0.2725317   -0.6733277 
   1    -5.6741886    3.0488685    8.3923967 
   1    -1.2739386   -6.6267670    8.9246850 
  13     9.5015567   -2.8684420    2.2206810 
   1    11.2880695   -3.5775283    4.5170601 
   1     6.6859841   -2.1062177    3.3083403 
   1     9.2292109   -4.7582909   -0.1118442 
