#
# Number of atoms
#
 28
#
# The current total energy in Eh
#
  -1707.295215967887
#
# The current gradient in Eh/bohr
#
      -0.000000485873
      -0.000002310083
      -0.000004395259
       0.000002913976
      -0.000001984919
       0.000005205908
       0.000000264459
       0.000005486103
       0.000000813591
      -0.000004725886
       0.000000187123
      -0.000009517055
       0.000003715344
       0.000006716693
      -0.000001946972
       0.000000198936
      -0.000000830769
       0.000001325507
      -0.000001771939
      -0.000005303205
      -0.000000280972
       0.000003776054
       0.000003853822
       0.000000186464
      -0.000001685851
       0.000001185772
       0.000003770196
      -0.000001414960
       0.000002312238
      -0.000003381544
      -0.000003645294
      -0.000002723454
      -0.000000753970
      -0.000000766519
       0.000002486049
      -0.000000756966
       0.000006274872
       0.000001069998
       0.000001106422
      -0.000001326142
       0.000000303034
       0.000001918200
       0.000000204024
      -0.000004118347
       0.000001416365
       0.000000718551
       0.000000958075
       0.000001887437
       0.000000006803
       0.000002161453
      -0.000002157033
       0.000001019267
       0.000001058581
       0.000002465033
       0.000002644756
      -0.000001249931
       0.000001527540
      -0.000002842768
       0.000005221770
       0.000000828492
       0.000002208910
      -0.000000146356
      -0.000002648979
      -0.000006133802
      -0.000001896232
      -0.000003042854
      -0.000002947704
      -0.000003881395
       0.000001301466
       0.000000753643
      -0.000004635548
      -0.000001148825
      -0.000002479664
      -0.000002353513
       0.000005615237
       0.000003754811
       0.000000947984
      -0.000000902980
       0.000004359558
      -0.000000140891
       0.000003182232
      -0.000002587564
      -0.000002374096
      -0.000001616565
#
# The atomic numbers and current coordinates in Bohr
#
  13     2.6315121   -7.7887556    1.1206013 
  13     3.2117252   -7.5311780    7.4245733 
  13     1.7898706   -1.8122116    2.0994206 
  13    -1.4149884   -4.1147034    6.3648259 
  13    -2.0906822    1.1727978    4.0134309 
  13    -1.6537047    0.8523013    9.8144766 
  13    -4.6663497   -3.6576018   11.3404216 
   1     0.3497212   -9.4311122    0.1685311 
   1     5.4933347   -8.0713876    0.3514339 
   1     3.0088142  -10.2635263    8.5787002 
   1     5.4587871   -5.6002508    7.7157006 
   1     2.5838724   -7.7667889    4.3104647 
   1     1.8887949   -4.7140785    0.6868312 
   1     4.2780751   -0.4274276    1.3118959 
   1    -1.0518158   -0.9436441    1.2267215 
   1    -2.6466779    2.4053015    7.3455631 
   1    -3.1609117   -1.5053362    5.2233385 
   1     0.9029291    1.4902728    4.4416074 
   1    -3.9849684    2.9589083    2.6119260 
   1    -4.3909607   -0.4729906   10.7067310 
   1    -7.5663791   -4.0810534   11.8044158 
   1    -2.3731997   -4.2308548   13.1548292 
   1    -3.8868902   -4.6255816    8.4562955 
   1     0.5324667   -5.9725452    8.1664599 
   1     1.4028023   -2.9898384    4.9526520 
   1    -2.2701329   -5.9689257    4.1838650 
   1    -0.2810590   -1.6874450    8.6806525 
   1    -0.3041646    2.3468795   11.9816630 
