#
# Number of atoms
#
 76
#
# The current total energy in Eh
#
  -3975.623450026201
#
# The current gradient in Eh/bohr
#
       0.000001704004
      -0.000007672520
       0.000004601793
       0.000003038434
      -0.000002363040
      -0.000007774995
       0.000014716866
       0.000002809468
       0.000000524513
      -0.000003470639
      -0.000012557769
       0.000004734987
       0.000006040970
      -0.000007002056
       0.000002893129
       0.000011637281
      -0.000001197994
      -0.000001446258
      -0.000004010090
       0.000007334377
      -0.000006993073
      -0.000006062434
       0.000001282230
      -0.000001711928
      -0.000004289054
      -0.000000155208
       0.000004413675
       0.000003053417
      -0.000000981373
       0.000007510848
      -0.000003829955
       0.000003657156
       0.000000376613
       0.000000136617
       0.000003178426
       0.000002135274
       0.000004246850
       0.000000816884
       0.000003101768
       0.000001769909
       0.000000558907
       0.000005891342
       0.000000726050
       0.000004741134
      -0.000003317486
       0.000004922261
       0.000005279255
       0.000000475182
       0.000001057985
       0.000001812517
      -0.000002100030
       0.000000027798
       0.000004630180
       0.000001843783
      -0.000003569636
      -0.000001491291
       0.000001410979
      -0.000005441522
       0.000000422997
       0.000001406493
       0.000004194206
       0.000001322883
      -0.000001705959
      -0.000002248477
       0.000001135824
      -0.000000551613
      -0.000001871472
      -0.000000152091
      -0.000002169607
       0.000000509333
      -0.000006168770
       0.000000146789
       0.000004434763
      -0.000001422156
       0.000001676163
      -0.000003656492
       0.000003260649
       0.000006242720
       0.000000834040
       0.000007642627
       0.000000950786
      -0.000005664189
       0.000000009749
      -0.000001480661
      -0.000004305366
      -0.000001033219
      -0.000012065630
       0.000000408891
      -0.000000437622
      -0.000004442952
      -0.000009916927
       0.000005489363
       0.000000417497
       0.000003351911
      -0.000002871148
      -0.000001608847
      -0.000000048766
      -0.000000710714
       0.000005563323
       0.000001941011
      -0.000000401577
      -0.000001294267
      -0.000000730157
      -0.000000972512
       0.000000976558
       0.000002175906
       0.000000851521
       0.000000256885
       0.000002782497
      -0.000000495411
       0.000002901906
       0.000001458025
      -0.000002252639
      -0.000001403659
       0.000006823625
      -0.000004443624
      -0.000000338986
       0.000000091866
      -0.000002872574
       0.000002042255
      -0.000004441105
       0.000001271541
       0.000004519434
      -0.000004183348
      -0.000002056745
       0.000001390404
      -0.000000555545
      -0.000000824529
      -0.000004100600
      -0.000001314299
      -0.000002306804
      -0.000002612454
       0.000001594126
      -0.000000041490
       0.000000805869
      -0.000002454970
       0.000003236231
      -0.000006852587
      -0.000000454968
      -0.000000256331
       0.000005299871
       0.000001487085
      -0.000002298568
       0.000002478611
      -0.000004096970
       0.000000217558
       0.000002123957
      -0.000000188205
      -0.000000221422
      -0.000002460893
       0.000003880570
       0.000000802508
      -0.000001166993
       0.000001343636
       0.000000746065
       0.000004660750
      -0.000002829274
       0.000000868351
      -0.000001573179
      -0.000003297513
       0.000000197302
       0.000000502272
       0.000001838231
       0.000000107660
      -0.000000383977
       0.000000781538
      -0.000000508922
      -0.000002933233
      -0.000000103013
      -0.000000130479
       0.000000155282
      -0.000000045251
       0.000000732323
       0.000004691490
       0.000003940549
      -0.000000123302
       0.000002969046
       0.000003429471
      -0.000000061334
       0.000000227426
      -0.000004731413
       0.000000897879
       0.000006523630
       0.000009542684
      -0.000002434624
       0.000000974915
      -0.000000756202
      -0.000005590531
      -0.000009839730
      -0.000004098579
       0.000001862355
      -0.000001410275
      -0.000004145739
       0.000007321909
       0.000004553618
      -0.000001097808
       0.000000286524
       0.000000004673
       0.000000800808
       0.000001299926
      -0.000002962551
      -0.000003675263
      -0.000003462205
       0.000001831680
      -0.000003868755
       0.000009598376
       0.000000571710
      -0.000002367748
      -0.000000786823
      -0.000002936587
      -0.000000024187
      -0.000000365726
      -0.000001693802
      -0.000001240897
      -0.000004166240
       0.000000770152
      -0.000003354250
       0.000008283730
      -0.000011561515
      -0.000001963495
      -0.000005479190
      -0.000004456356
       0.000000780351
      -0.000003193155
       0.000000104588
       0.000002900477
      -0.000002002637
      -0.000000303928
#
# The atomic numbers and current coordinates in Bohr
#
  40    -1.3954371    3.0931850    3.6267099 
  40     0.6667383   -3.3798077   -2.9318596 
  40     3.0776506   -2.1766179    2.9219822 
  40    -3.7973419    1.8497649   -2.1734311 
  40     2.5901152    2.6489397   -2.0083262 
  40    -3.2838411   -2.9899073    2.7503092 
   8    -3.8355364    0.5888263    1.4424832 
   8     3.1114423   -0.8701507   -0.7349509 
   8    -0.0545558   -3.8328832    0.8030632 
   8    -0.6714797    3.5632658   -0.1360462 
   8    -0.4901462    0.2957773   -3.3601555 
   8    -0.2177201   -0.5645738    4.0428345 
   8    -3.8829431    2.2692111    6.7896718 
   8    -4.5452422    5.7290587    3.0871718 
   8     1.6129094    3.1930402    6.4804783 
   8     0.6555190    6.7516483    3.3642314 
   8    -1.3868760   -7.0348681   -2.6460373 
   8    -2.3623399   -3.4773771   -5.7635183 
   8     3.8337370   -5.9715233   -2.4777765 
   8     3.1175192   -2.4728440   -6.1369955 
   8     2.2696255   -5.2670382    5.5306798 
   8     3.9602420   -0.3235313    6.5802894 
   8     5.3065667   -5.2950655    1.4077411 
   8     6.5800552   -0.0083744    2.5223518 
   8    -7.2894306   -0.3548281   -1.7991637 
   8    -5.9822956    5.0325781   -0.8082972 
   8    -4.6967583    0.0452953   -5.8616837 
   8    -2.9613419    4.9303958   -4.9264010 
   8     1.1355286    5.8570724   -4.7503261 
   8     3.5197790    5.8818322    0.3876460 
   8     4.0872614    1.5989983   -5.6764900 
   8     6.6456233    2.4225534   -0.9383589 
   8    -7.3330271   -2.8296192    1.6298618 
   8    -5.0197323   -1.7537841    6.2930027 
   8    -4.1961782   -6.3101878    0.4312714 
   8    -1.9132223   -5.7342422    5.4921435 
   6    -5.0019366    0.2960251    7.4602231 
   6    -5.9841147    6.1649707    1.2739585 
   6     3.0477983    1.6253890    7.5381728 
   6     2.3866163    7.3412578    1.8854737 
   6    -3.0532586   -7.6977855   -1.1197501 
   6    -3.7913169   -1.9046561   -6.8225329 
   6     5.3143398   -6.3899260   -0.6862385 
   6     4.0902210   -0.4495772   -6.8624970 
   6     0.2639422   -6.3047928    6.2164404 
   6     7.6718532    1.1928824    0.7866392 
   6    -8.3697996   -1.5858225   -0.0788888 
   6    -1.1144399    6.1754814   -5.5760270 
   1    -4.3224244   -2.3143650   -8.7849653 
   1     6.7511280   -7.8534515   -0.9771409 
   1     3.5792063    2.0386415    9.4996966 
   1    -7.3818542    7.6742454    1.5149220 
   1     5.0397382   -0.4609491   -8.7029963 
   1    -1.3724122    7.6820807   -6.9747527 
   1     3.0194200    9.3161750    1.9046251 
   1     9.7450514    1.1812790    0.8200405 
   1    -3.6107729   -9.6952116   -1.1552494 
   1   -10.4435086   -1.5909076   -0.1129856 
   1    -6.0653444    0.3795249    9.2360262 
   1     0.4244224   -7.8564494    7.5792438 
  13     3.8704901    8.3939410   -5.6441013 
  13     1.5404044   13.3029580   -3.1589766 
   1     4.2966112   14.4339151   -2.0886896 
   1     0.9999826   14.3955501   -5.8758318 
   1     2.4734082   10.2939042   -3.4271570 
   1     2.9197267    8.9588014   -8.4188336 
   1     6.1065700   11.0607540   -5.8255204 
   1    -0.3571240   13.3463887   -0.8571463 
  13     6.8474381   16.3556946   -2.3736312 
   1     8.7391521   14.3146337   -3.8559223 
   1     6.1400977   18.5102787   -4.3067129 
   1     6.0501669    6.6273174   -4.5739737 
  13     8.5511762   11.0450887   -3.9039610 
   1    11.0812725   10.2044054   -5.2365022 
   1     7.7532019   10.4027769   -1.0928094 
   1     7.7932626   16.7750995    0.4196880 
