#
# Number of atoms
#
 76
#
# The current total energy in Eh
#
  -3976.513268007080
#
# The current gradient in Eh/bohr
#
       0.000051551191
       0.000051348556
      -0.000036164427
       0.000015640408
      -0.000076828775
      -0.000046385324
       0.000118825098
      -0.000071880903
       0.000049894321
      -0.000043276768
      -0.000076056427
      -0.000081074011
       0.000068225614
      -0.000040106435
      -0.000148787945
      -0.000009810173
       0.000110753059
      -0.000071220271
      -0.000067928393
      -0.000026216232
       0.000013755509
      -0.000017500581
      -0.000036117780
      -0.000024734676
       0.000126233008
       0.000003102525
       0.000000599363
       0.000101379014
       0.000089198501
       0.000129524962
       0.000014346146
      -0.000039345404
       0.000090095749
       0.000028995973
       0.000050499028
       0.000092006915
      -0.000054735678
      -0.000030383281
       0.000022322824
       0.000009641163
      -0.000017420822
       0.000095038631
       0.000022226761
      -0.000027923181
       0.000023653102
      -0.000149171644
      -0.000128371884
       0.000041118900
      -0.000007128426
      -0.000015284218
      -0.000002709007
       0.000034587610
      -0.000025721968
       0.000036586123
      -0.000039755416
       0.000036787564
       0.000009108633
      -0.000006694034
       0.000001962883
       0.000051384142
      -0.000044644519
      -0.000017894621
       0.000028310719
      -0.000098162868
       0.000117776661
       0.000012492761
      -0.000012322651
       0.000067160541
       0.000038476222
      -0.000106683936
      -0.000035836646
       0.000069345632
       0.000057780182
      -0.000011682586
      -0.000043354148
      -0.000026757647
      -0.000071159599
      -0.000096273450
      -0.000087077638
      -0.000011843987
       0.000066681535
       0.000068462770
       0.000102636553
      -0.000006028498
       0.000087813424
       0.000013933074
       0.000048865899
      -0.000101913222
      -0.000009440483
      -0.000017129900
       0.000009265331
       0.000003593823
       0.000078109016
      -0.000029166848
       0.000000208853
      -0.000027553802
      -0.000010967636
      -0.000008937132
       0.000015280163
      -0.000015948975
      -0.000009929087
      -0.000023291123
      -0.000043775890
      -0.000094092454
      -0.000021824405
       0.000020584129
       0.000046401906
       0.000011633101
       0.000024665363
       0.000034004296
       0.000034757069
       0.000011985204
       0.000009771050
      -0.000016958174
       0.000036338315
      -0.000126089042
      -0.000086246485
       0.000186605977
       0.000129547183
      -0.000032325418
       0.000029511068
       0.000061006738
       0.000005498520
      -0.000033195575
       0.000029996183
      -0.000068900599
       0.000004548648
      -0.000056359436
      -0.000053990789
       0.000038191660
       0.000015778061
      -0.000073104302
      -0.000000795616
      -0.000026176669
      -0.000001092431
       0.000049141084
      -0.000000848126
       0.000008726610
      -0.000018245406
       0.000015584060
      -0.000015513440
      -0.000202501138
       0.000005605156
      -0.000086849219
       0.000000150172
      -0.000007404102
      -0.000019487733
      -0.000010298023
       0.000003499849
      -0.000008768424
       0.000001635938
       0.000048036477
       0.000028238816
      -0.000032076717
       0.000085134179
       0.000028891378
      -0.000013633283
      -0.000016465933
      -0.000008428909
       0.000057213037
       0.000002008254
       0.000070896870
      -0.000061597648
      -0.000017632876
      -0.000065720922
      -0.000021305486
       0.000012940818
      -0.000044213166
      -0.000003181800
      -0.000000890843
       0.000012293556
       0.000018739019
      -0.000009062901
       0.000031673455
       0.000022129866
      -0.000010794833
      -0.000017589596
       0.000012805417
       0.000022667586
      -0.000020297948
       0.000056413583
       0.000012148018
       0.000015468311
      -0.000023040666
       0.000118151494
       0.000046555674
       0.000010313318
      -0.000019548946
       0.000101878759
       0.000000127376
      -0.000082850043
       0.000027924838
       0.000093516369
      -0.000049058063
      -0.000051533955
      -0.000036195733
       0.000010666031
      -0.000034007973
      -0.000027151627
      -0.000006632552
      -0.000046795350
      -0.000045556800
      -0.000072188992
      -0.000090465395
       0.000015230918
       0.000065104909
      -0.000004811726
       0.000029796221
       0.000001676353
      -0.000058396486
      -0.000005079607
       0.000005096873
       0.000052524512
      -0.000008956053
      -0.000027362703
       0.000036245748
      -0.000018748398
      -0.000029912574
       0.000143508915
       0.000009094931
       0.000013677433
      -0.000023458640
      -0.000004057620
       0.000048519032
      -0.000025579924
      -0.000004671170
      -0.000004230950
      -0.000068299317
#
# The atomic numbers and current coordinates in Bohr
#
  40    -1.0765684    3.3258900    3.5531547 
  40     0.5263955   -3.5768500   -2.9830797 
  40     3.1933011   -2.2961774    2.9095477 
  40    -3.7193816    2.0105825   -2.2939654 
  40     2.8689753    2.5073278   -2.2569629 
  40    -3.3553545   -2.8043507    2.8698252 
   8    -3.7273885    0.8306669    1.4334658 
   8     3.1871682   -1.0776231   -0.8593627 
   8    -0.1411567   -3.8758396    0.8558016 
   8    -0.3873464    3.6421373   -0.3120003 
   8    -0.4479500    0.2208016   -3.4956561 
   8    -0.0692329   -0.4548132    4.0467837 
   8    -3.6357296    2.7074525    6.8180463 
   8    -4.1421272    6.1777337    2.9668676 
   8     2.0276683    3.3449773    6.4296026 
   8     1.2040000    6.9336185    3.1845247 
   8    -1.7612412   -7.1835724   -2.5272071 
   8    -2.6267023   -3.6123240   -5.7900497 
   8     3.6244899   -6.3800194   -2.4956954 
   8     3.0201439   -2.8980821   -6.3132066 
   8     2.2559048   -5.3251889    5.6842251 
   8     4.2626769   -0.3289096    6.5523825 
   8     5.2312749   -5.6583932    1.4136825 
   8     6.8665814   -0.3206389    2.3641550 
   8    -7.3812521   -0.0319328   -1.7777890 
   8    -5.6979561    5.4351969   -0.9579593 
   8    -4.8153606    0.0834783   -5.9728080 
   8    -2.8012987    4.9995256   -5.2352886 
   8     1.4192498    5.6999615   -5.1087031 
   8     4.0758400    5.6404007    0.2731008 
   8     4.2335435    1.2042972   -6.0107848 
   8     7.0241723    1.9923595   -1.2629529 
   8    -7.4922890   -2.4460010    1.7811780 
   8    -4.9941124   -1.3445411    6.4736824 
   8    -4.5132370   -6.1950945    0.6287276 
   8    -2.0244839   -5.5615989    5.7445135 
   6    -4.8561496    0.7806446    7.5694607 
   6    -5.5732812    6.6571657    1.1120632 
   6     3.4523739    1.7163238    7.4887154 
   6     3.0507817    7.2865663    1.7154647 
   6    -3.4653430   -7.7023219   -0.9355138 
   6    -4.0299221   -1.9813864   -6.8796734 
   6     5.1214657   -6.8285152   -0.6781724 
   6     4.0946258   -0.9164175   -7.1272513 
   6     0.1721705   -6.2272283    6.4486873 
   6     8.0068645    0.7656143    0.5328054 
   6    -8.5005076   -1.1860251    0.0203101 
   6    -0.8488665    6.1258557   -5.9274365 
   1    -4.6605059   -2.4585388   -8.8609478 
   1     6.4977308   -8.4324909   -0.9484257 
   1     4.0846321    2.1712302    9.4745796 
   1    -6.8773661    8.3299011    1.3056102 
   1     5.0263717   -1.0457111   -9.0386273 
   1    -1.0289921    7.6532469   -7.4015300 
   1     3.9151413    9.2350584    1.6779137 
   1    10.1357353    0.6318108    0.5455955 
   1    -4.1669527   -9.7168579   -0.9100326 
   1   -10.6318710   -1.0916837    0.0114717 
   1    -5.9258466    0.9866183    9.4006586 
   1     0.2769912   -7.7798386    7.9041630 
  13     4.4538928    8.1774889   -5.9366469 
  13     1.1181406   12.7001371   -3.4801250 
   1     2.8238045   14.0484957   -1.0266647 
   1     1.4887045   14.3465158   -6.0182857 
   1     3.0046437   10.0665952   -3.6106321 
   1     3.4783885    8.8676598   -8.7532082 
   1     6.8694753   10.7836224   -6.0264555 
   1    -1.5384155   11.7786258   -2.2793026 
  13     5.2710697   16.2820445   -1.2310968 
   1     7.0310518   14.9193620   -3.6069521 
   1     4.0747952   18.8272267   -2.4125160 
   1     6.3847400    6.1065725   -4.7862427 
  13     8.5902738   11.9490702   -3.6042411 
   1    11.4458371   12.5939370   -4.4695357 
   1     7.8031234   10.6600824   -0.9420828 
   1     6.7032357   16.0248713    1.4497651 
