#
# Number of atoms
#
 64
#
# The current total energy in Eh
#
  -3243.944726719029
#
# The current gradient in Eh/bohr
#
      -0.000000538521
       0.000015565337
      -0.000007821856
       0.000002863079
       0.000002419434
       0.000006371327
      -0.000003134217
      -0.000009017318
       0.000015363610
      -0.000007171223
       0.000006882282
       0.000004403895
       0.000003717320
       0.000009506332
      -0.000015732056
       0.000004123966
       0.000000213379
       0.000012645601
      -0.000007164688
      -0.000003215102
      -0.000002125531
       0.000004301792
      -0.000003187957
      -0.000007046997
       0.000004810171
       0.000000442883
      -0.000007616164
       0.000003189442
      -0.000001490614
      -0.000002363503
      -0.000000369087
      -0.000006539557
       0.000000290220
       0.000000690380
      -0.000005090100
       0.000000527212
       0.000005568580
       0.000007952872
       0.000002256592
       0.000003320958
       0.000007048646
       0.000004398027
       0.000003383080
       0.000003675475
      -0.000000243632
       0.000002717689
       0.000002784293
      -0.000002872978
      -0.000006893788
      -0.000004650279
       0.000004453289
      -0.000005215760
       0.000001366377
       0.000003001462
      -0.000006710593
      -0.000008192027
       0.000001225604
      -0.000001082674
      -0.000009214900
       0.000001814933
       0.000003606088
      -0.000001744779
       0.000003096251
      -0.000001209657
      -0.000000280841
      -0.000001296960
      -0.000005052614
       0.000002637472
       0.000004468100
      -0.000000507893
      -0.000004725345
      -0.000001792217
       0.000002226552
       0.000005189193
      -0.000003204414
       0.000001076294
       0.000006733620
      -0.000003773727
      -0.000003229612
       0.000001826684
      -0.000007028445
      -0.000000969720
       0.000002480228
      -0.000007642301
       0.000006647336
      -0.000002466657
      -0.000001373141
       0.000004307094
      -0.000003385382
      -0.000006292536
       0.000005962082
      -0.000013086588
       0.000003824117
      -0.000003474438
      -0.000002661456
       0.000000809224
      -0.000006838734
       0.000005939056
      -0.000000502463
      -0.000002472625
       0.000005483544
       0.000000211508
      -0.000007666179
       0.000004842470
       0.000008339590
      -0.000004984979
       0.000006995873
       0.000004578175
       0.000006615608
       0.000001815592
      -0.000006204424
       0.000007698484
      -0.000007464747
      -0.000004641404
      -0.000001037050
       0.000001229444
      -0.000006480621
      -0.000001633588
      -0.000008596435
      -0.000002600832
       0.000001609158
       0.000006551325
       0.000001870034
       0.000003649091
      -0.000008320941
       0.000010502920
      -0.000006184605
       0.000002470353
       0.000000095169
      -0.000005542251
       0.000003267062
       0.000003015268
      -0.000001165679
       0.000008682500
      -0.000004311566
       0.000004583999
      -0.000004982362
      -0.000002113941
       0.000008560576
       0.000001239734
       0.000006934402
      -0.000002383119
      -0.000011346392
       0.000005427226
      -0.000002420317
       0.000000620612
       0.000000772382
      -0.000003243081
      -0.000001561052
       0.000005058239
       0.000002942675
       0.000001914952
      -0.000001569081
       0.000004541486
       0.000002945188
      -0.000004080707
      -0.000005785137
      -0.000007200246
      -0.000001016721
       0.000002339903
      -0.000005176387
      -0.000004207507
       0.000005567735
      -0.000002245606
      -0.000006277388
       0.000001135122
      -0.000005650736
      -0.000003686440
      -0.000004728673
       0.000002775081
       0.000004786344
      -0.000000040049
       0.000005991495
       0.000000535473
       0.000003078841
       0.000007203014
      -0.000000302608
      -0.000001543277
       0.000004769690
       0.000003506963
      -0.000006429732
      -0.000006987402
      -0.000003011966
      -0.000005132553
      -0.000002731664
      -0.000001897874
       0.000009406387
       0.000001556875
       0.000000334642
      -0.000002284859
      -0.000001805429
       0.000006214192
#
# The atomic numbers and current coordinates in Bohr
#
  40    -0.0652803    3.2004424    2.8051302 
  40    -0.0748795   -4.3483303   -2.5610655 
  40     2.6452153   -2.3526113    3.7102820 
  40    -2.7984092    2.1169055   -2.7721246 
  40     3.4058814    1.7947667   -2.2526129 
  40    -3.5426009   -2.0535680    3.0421676 
   8    -2.9098023    1.1089831    0.9641795 
   8     2.9614856    0.7201205    1.4311509 
   8    -0.2753316   -3.5807068    1.1361991 
   8     0.3152988    3.8050413   -1.2127376 
   8     0.1458292   -0.5984709   -3.0274215 
   8    -0.4499861   -0.4085529    4.7168255 
   8    -2.9873645    3.7455070    5.8438232 
   8    -2.5156994    6.5598073    1.9159236 
   8     2.3068065    3.4949382    6.3058735 
   8     2.7474012    6.3192908    2.3741059 
   8    -2.5652747   -7.4119616   -1.5496181 
   8    -3.1515518   -4.0145374   -5.1408562 
   8     2.9701390   -6.7770348   -1.5200000 
   8     2.3477661   -4.3689109   -5.8368972 
   8     1.1983154   -4.9891994    6.5589163 
   8     4.1464831   -0.2601649    6.8636331 
   8     4.2015191   -5.9848305    2.4155397 
   8    10.6367265    0.3049282    1.0098024 
   8    -6.6984189    0.7904143   -2.2746035 
   8    -4.4979555    5.6497618   -1.7015120 
   8    -3.9204589   -0.0314675   -6.2526009 
   8    -1.3889997    4.3177201   -6.0286004 
   8     2.7790660    3.7988747   -5.7960296 
   8     5.0690757    5.3738054   -1.0228459 
   8     4.7696702   -1.0197228   -5.0615649 
   8     7.3610429    0.9214792   -1.4864424 
   8    -7.2850441   -1.3375526    1.3218745 
   8    -5.3514237    0.2408100    5.8817220 
   8    -4.9530296   -5.6569345    1.4339670 
   8    -2.9808299   -4.7258564    6.1650381 
   6    -4.6713715    2.3652147    6.7183366 
   6    -3.9375056    7.0760065    0.1252725 
   6     3.5885534    1.9566011    7.5296860 
   6     4.3449800    6.8125677    0.7245793 
   6    -4.2589824   -7.4722713    0.1127221 
   6    -3.9271461   -2.3334260   -6.6523022 
   6     4.1026673   -7.3300173    0.4965944 
   6     4.0554393   -2.8159429   -6.3962532 
   6    -1.0128572   -5.4421707    7.2602634 
   6     9.3803885    1.6211835   -0.5142949 
   6    -8.0351342   -0.0858934   -0.5267576 
   6     0.8199586    4.7604935   -6.7203226 
   1    -4.6859975   -3.0022615   -8.4603685 
   1     5.0913216   -9.1469163    0.5408082 
   1     4.3361169    2.5796516    9.3598026 
   1    -4.8213918    8.9515462    0.1226761 
   1     5.0032004   -3.0998755   -8.2165782 
   1     1.0756120    6.0874310   -8.2912685 
   1     5.2465257    8.6786698    0.8105655 
   1    10.1643307    3.4724678   -1.0109901 
   1    -5.2158314   -9.2879013    0.3955088 
   1   -10.0774867    0.2487371   -0.6630454 
   1    -5.7005385    3.0621809    8.3780464 
   1    -1.2468420   -6.5876021    8.9710763 
  13     9.4961993   -2.8479046    2.1392294 
   1    11.3283660   -3.6377313    4.3841604 
   1     6.7197551   -2.1136611    3.3092691 
   1     9.2203009   -4.6966428   -0.2284815 
