Corrected dielectric energy   =     -0.025944269
Total C-PCM charge            =      0.000000000
C-PCM corrected charges:
     0.000000105
     0.000000822
     0.000000005
     0.000000000
     0.000000016
     0.000014253
     0.000000001
     0.000001131
    -0.000000000
    -0.000000010
     0.000096291
     0.000000008
    -0.000000020
    -0.000807919
    -0.002002012
     0.000000049
    -0.000000026
     0.000000003
    -0.000093203
    -0.000104889
    -0.004357418
     0.000000577
     0.000000537
    -0.000304477
    -0.001694917
     0.000000023
     0.000000003
    -0.000297495
    -0.000775055
     0.000000001
     0.000000509
     0.000000001
    -0.000332888
    -0.000000006
    -0.011328267
    -0.000009361
     0.000000001
    -0.000002753
    -0.002715738
     0.000000001
    -0.000373423
    -0.000020747
    -0.000008963
    -0.000000028
     0.000000043
    -0.000011639
    -0.001233505
     0.000000000
    -0.000109981
    -0.000299074
    -0.000000273
    -0.000018017
    -0.000000022
    -0.000843375
     0.000000000
    -0.004835999
    -0.005584438
    -0.000020450
    -0.000000002
     0.000000005
     0.000000001
    -0.003911163
    -0.004869384
     0.000000002
    -0.000343698
    -0.000000463
    -0.000000026
    -0.000000010
     0.000000005
     0.000000000
    -0.002487350
    -0.000000646
     0.000050086
    -0.000241029
    -0.002818276
     0.000000051
    -0.000000112
    -0.004991801
    -0.004420579
    -0.004208644
     0.000000000
    -0.002452960
    -0.000000936
    -0.000302564
     0.000000001
    -0.000000014
     0.000000000
    -0.001996818
    -0.000000200
    -0.004497987
    -0.003495444
    -0.000090179
    -0.000309005
    -0.008474374
    -0.004566266
     0.000001627
    -0.000422623
    -0.000000735
     0.000000027
    -0.000000000
     0.000000052
    -0.002433353
    -0.000611819
     0.000000001
    -0.004410719
     0.000000071
    -0.000000023
    -0.000023281
    -0.003580630
    -0.001620180
    -0.003984344
     0.000046032
     0.000000000
     0.000000043
     0.000000001
     0.000000022
     0.000001293
    -0.000483645
    -0.000000752
     0.000207992
     0.000000001
    -0.000026920
    -0.000996461
    -0.000390793
     0.000000608
     0.000000160
    -0.002673896
     0.000068153
    -0.000021054
     0.000083363
    -0.004358525
    -0.000000702
     0.000000001
    -0.003163519
    -0.000000110
     0.000000267
    -0.000621529
     0.000108814
     0.000000012
    -0.000974490
    -0.000000472
    -0.002248666
     0.000000015
    -0.000014406
     0.000000002
    -0.000029955
    -0.006251434
    -0.000000024
    -0.000318846
     0.000002212
    -0.000293993
    -0.000000003
    -0.000000282
     0.000000002
    -0.004483850
    -0.000000001
    -0.000007835
     0.000000001
    -0.000489492
     0.000000012
    -0.002340025
    -0.000005056
     0.000000006
    -0.004866069
     0.000000102
    -0.000057318
    -0.002661559
     0.000008978
    -0.000093068
    -0.004347889
     0.000000001
    -0.001405388
     0.000002542
     0.000000001
    -0.000004640
    -0.001372536
    -0.000000015
     0.000000501
    -0.000001566
     0.000000016
    -0.000000000
    -0.000188015
     0.000000389
    -0.000000255
    -0.004091850
    -0.000007631
     0.000034084
    -0.002665815
    -0.000703298
    -0.000000017
     0.000000163
     0.000000005
    -0.000000000
     0.000000041
    -0.001887803
     0.000123360
    -0.000000020
     0.000000088
     0.000000016
    -0.000004835
     0.000000025
    -0.000853210
    -0.000002446
    -0.000079286
    -0.004555353
     0.000000010
    -0.000528130
    -0.000095497
    -0.000000003
    -0.003166610
     0.000000000
     0.000000001
     0.000000004
    -0.000477765
    -0.000038894
     0.000000009
    -0.003913507
    -0.000212018
    -0.000000001
     0.000000179
    -0.005504356
     0.000103216
    -0.003072306
     0.000000076
    -0.000000003
     0.000000284
    -0.000100448
    -0.000037244
     0.000000421
     0.000003595
     0.000014944
     0.000001455
    -0.000639611
    -0.000000053
    -0.003380978
     0.000000002
    -0.000105274
    -0.000215850
     0.000000017
    -0.000045985
    -0.000003612
     0.000005144
    -0.000378159
    -0.000000036
     0.000000026
     0.000000026
     0.000000088
    -0.000000001
    -0.002312721
     0.000000088
    -0.000000092
    -0.000000036
    -0.000000082
    -0.000081027
    -0.000005727
     0.000000010
    -0.004304477
    -0.003004095
    -0.003615511
     0.000000000
     0.000000040
    -0.004548819
     0.000029861
    -0.000002215
    -0.002514754
     0.000110908
    -0.005856308
    -0.000077963
     0.000000001
     0.000000012
    -0.000067155
     0.000000006
    -0.000000738
    -0.000000003
     0.000000001
    -0.003715522
     0.000000068
     0.000021242
     0.000000489
     0.000000284
    -0.000000277
    -0.004389954
    -0.003284152
    -0.000590888
    -0.000000001
     0.000000165
     0.000000050
    -0.000001397
     0.000000124
     0.000002163
    -0.000030159
    -0.000013207
     0.000005562
     0.000000944
     0.000000549
    -0.003265058
    -0.001249283
     0.000000004
     0.000266489
     0.000227097
     0.002161283
    -0.000000128
     0.000577134
     0.000021308
     0.002194421
    -0.000000089
     0.000002025
     0.002256698
    -0.000016338
     0.000000010
    -0.000000459
    -0.000000625
    -0.000009264
     0.002021923
     0.002030538
    -0.000207385
     0.001450610
    -0.000000055
     0.002533570
    -0.000000008
    -0.000000002
    -0.000001807
     0.000116824
    -0.000040184
     0.002580826
     0.000626752
     0.001652443
     0.000003023
     0.000078986
     0.002430492
    -0.000005964
     0.002242469
    -0.000000228
     0.002078528
    -0.000000006
    -0.000041845
    -0.000000556
     0.000095516
    -0.000121898
    -0.000000005
    -0.000041770
     0.000086428
     0.000024515
    -0.000000001
    -0.000030488
     0.001050713
     0.000283618
    -0.000001122
    -0.000000001
     0.002289724
     0.000000001
     0.001548791
     0.001970872
     0.001286373
     0.000000003
    -0.000000306
    -0.000000656
     0.000002932
     0.002908387
     0.002186182
     0.002762237
     0.000738397
     0.001132974
     0.001500066
     0.002482753
     0.002404391
     0.000000250
    -0.000000001
     0.000892070
     0.002994327
     0.002767797
     0.003169253
     0.000000001
     0.000895148
     0.000610273
    -0.000000029
     0.001590644
     0.001453949
     0.000539777
     0.000330534
    -0.000001680
     0.000847425
    -0.000039422
    -0.000014613
    -0.000000017
    -0.000000002
     0.001087993
     0.000014570
    -0.000000021
    -0.000000011
     0.000958569
     0.001790345
     0.002252380
    -0.000000001
     0.000000336
     0.002018934
     0.002492569
     0.002327159
     0.002315851
     0.000136408
     0.002818034
     0.003104895
     0.001264179
     0.000001559
     0.001187599
    -0.000000005
    -0.000000002
     0.000000015
     0.000000000
     0.002371101
     0.001006391
     0.002552019
     0.001869260
    -0.000024111
    -0.000103763
     0.001114683
     0.002552079
    -0.000010213
     0.000742189
     0.000159824
     0.001435617
     0.000053168
     0.000000025
     0.002291738
     0.002775869
     0.002025906
     0.001173653
    -0.000000003
     0.002668141
     0.001226627
    -0.000000007
     0.001909244
    -0.000000049
    -0.000004187
     0.002323207
     0.002355361
     0.000000270
     0.000373104
    -0.000000092
     0.002465267
    -0.000000674
    -0.000006793
     0.002451282
     0.001700189
     0.000000539
     0.000026871
     0.000465583
     0.000006063
     0.000664582
     0.000062666
    -0.000000006
    -0.000000085
     0.001933791
     0.002018225
     0.001837282
     0.002715819
     0.001613136
     0.002546195
     0.000825714
    -0.000000044
     0.000439089
     0.002491571
     0.000000001
     0.002712637
     0.002511189
     0.002340195
     0.000802406
     0.000000031
     0.000000000
    -0.000004986
    -0.000001146
    -0.000000671
    -0.000004635
     0.002366824
     0.001653572
     0.000244831
     0.000129974
     0.001296375
     0.002141984
    -0.000206418
     0.002681065
    -0.000000519
     0.002792830
     0.003168730
     0.000000029
     0.002571407
    -0.000015708
     0.002379864
     0.001661178
     0.000012480
     0.002785960
    -0.000003984
     0.000424577
     0.001863237
    -0.000432725
     0.002052500
     0.000001163
     0.000311890
     0.002633118
     0.002500191
     0.001466861
     0.002700085
     0.002246153
     0.000247861
    -0.000007125
    -0.000000020
    -0.000012530
     0.000000001
     0.001802077
     0.002498300
    -0.000000005
     0.002577760
     0.000954969
    -0.000009521
     0.000337000
     0.000004811
     0.000922378
     0.002296280
     0.000669440
     0.000263528
     0.001233456
     0.000042489
    -0.000003766
    -0.000000001
     0.001654440
    -0.000010349
     0.000000622
    -0.000003840
     0.002426575
     0.001994714
     0.002632614
     0.002384007
     0.002538584
     0.002706946
     0.000446109
     0.001649302
     0.000434104
     0.000034265
    -0.000018327
     0.000279158
    -0.000512711
     0.003459741
     0.000000008
     0.000000096
     0.002373573
    -0.000000055
     0.000000235
     0.001776599
     0.000000000
     0.000961905
     0.002356356
     0.002022122
     0.001124544
     0.002321726
    -0.000468033
    -0.000012926
     0.002551483
    -0.000000301
     0.001081862
     0.002197695
     0.000003357
     0.001610375
     0.002513187
     0.000102980
     0.000001644
    -0.000018269
     0.001176003
     0.002552818
     0.000590826
     0.002418343
     0.002328136
     0.000001191
    -0.000016676
     0.000000005
     0.000266966
    -0.000000428
     0.002243473
     0.002050414
     0.002516231
    -0.000000320
     0.002016199
     0.001618506
     0.001407238
    -0.000000057
     0.002038280
     0.001841744
     0.002109440
     0.001707189
    -0.000000006
     0.002748534
     0.001209643
    -0.000007679
    -0.000004109
    -0.000001325
    -0.000013885
     0.002474525
     0.000000001
     0.002488696
     0.002663687
     0.000113655
     0.001832107
     0.000497536
     0.000729800
     0.001258762
    -0.000012860
     0.000052362
     0.000001121
     0.000000018
     0.001769527
     0.001447494
    -0.000012006
    -0.000000139
     0.002413346
     0.001434795
     0.003511803
    -0.000318585
     0.000004143
     0.002797707
     0.002178722
     0.003003605
    -0.000002037
     0.000918674
     0.002197376
     0.000098655
     0.000541422
    -0.000000170
     0.002765296
     0.000791583
     0.002778396
     0.001501582
    -0.000831520
     0.002135973
     0.001631920
     0.002424970
     0.002674671
    -0.000000040
     0.002821626
     0.001871673
     0.000073845
     0.002301309
     0.000053313
    -0.000000343
     0.002389477
     0.001923381
    -0.000001122
     0.000320418
     0.002598272
     0.000001331
     0.000154453
    -0.000003871
     0.000828047
     0.000669765
     0.000007642
     0.001291582
     0.000263369
     0.000034936
     0.001341252
    -0.000000004
     0.000030212
     0.001876354
     0.000441380
     0.000000053
    -0.000000019
     0.002609642
     0.001985940
     0.002315382
     0.002650364
    -0.000000002
     0.002705013
     0.002648413
    -0.000002570
    -0.000000001
     0.000212414
     0.000002382
    -0.000000921
     0.000000014
     0.002658485
    -0.000751270
     0.000724931
     0.000003596
    -0.000000000
     0.002491541
     0.000221708
     0.002110258
    -0.000000083
     0.000534521
    -0.000000366
     0.002516210
    -0.000412679
     0.001853484
     0.002103895
     0.001232968
     0.001293077
     0.001476556
     0.001904893
    -0.000001784
     0.001862214
    -0.000019825
     0.000799794
     0.000045955
    -0.000248009
     0.001434693
    -0.000026368
     0.002183469
     0.002277026
    -0.000000001
     0.000005548
     0.002036850
     0.001391871
     0.002314516
     0.001387565
    -0.000000113
    -0.000000001
    -0.000000002
    -0.000041208
     0.000692560
     0.002099000
     0.001403109
     0.002301958
     0.001483569
     0.001274968
     0.000036334
    -0.000437369
    -0.000023697
     0.000000011
    -0.000541310
     0.001284231
     0.001133383
    -0.000028333
     0.001630387
     0.001115461
     0.002060569
    -0.000021266
    -0.000000001
    -0.000000008
    -0.000000083
     0.001532849
    -0.000000002
     0.001637327
    -0.000017351
     0.002137317
    -0.000018124
     0.002513342
     0.002332997
     0.001967258
     0.002281192
    -0.000149128
    -0.000002915
    -0.000027759
     0.001391651
     0.000889873
     0.000017706
    -0.000063152
     0.000077251
    -0.000005782
     0.002273141
     0.002130284
    -0.000004197
     0.002343660
    -0.000018853
    -0.000000001
     0.000831414
     0.002003427
     0.001492153
    -0.000056549
     0.002378153
    -0.000044806
     0.000017166
     0.000906682
     0.000397016
     0.002648125
    -0.000043492
     0.002001513
     0.000821055
     0.000739275
    -0.000000009
     0.000462494
    -0.000000005
    -0.000001371
     0.001919705
     0.001399302
    -0.000205268
    -0.000015841
     0.000003071
     0.001189689
     0.002387632
    -0.000004788
     0.001578232
    -0.000016186
    -0.001499956
     0.001134455
    -0.000005174
     0.000001073
     0.001099078
     0.002227640
    -0.000015393
     0.002020997
    -0.000001515
    -0.000001217
    -0.000006112
     0.000000965
     0.000180106
     0.001141696
     0.001885656
    -0.000000867
     0.000229221
    -0.000002319
    -0.000097185
     0.002669626
     0.001003232
    -0.000206087
     0.000701548
    -0.000000785
     0.002197950
     0.002221475
     0.002361559
    -0.000025519
     0.000747087
    -0.000015697
     0.000878666
     0.001714196
    -0.000000034
     0.000000000
     0.002035050
     0.001587686
     0.000101652
    -0.000362960
    -0.000053260
     0.003030289
    -0.000042550
     0.002489408
    -0.000003512
     0.002470952
    -0.000000548
     0.002260270
    -0.000052772
     0.000925728
    -0.000001821
    -0.000022841
     0.001976558
    -0.000606485
    -0.000000002
     0.000231616
     0.000734834
    -0.000032671
     0.000355599
    -0.000008102
     0.001439428
     0.002151603
     0.002408210
     0.001718805
     0.002587999
    -0.000536175
    -0.001236002
    -0.000004066
    -0.000002269
     0.000689588
     0.001820432
     0.000464161
    -0.000028227
     0.002411474
    -0.001043908
    -0.000001765
    -0.000051999
     0.001546245
     0.001759330
    -0.000061402
     0.001386387
     0.000816865
    -0.000000047
     0.000024172
     0.000000016
    -0.000000001
    -0.000009610
     0.000030065
     0.000914485
    -0.000000735
    -0.000000007
    -0.000471171
    -0.000000031
     0.000948594
    -0.000000240
     0.000066610
     0.000191248
     0.001907433
     0.001758258
     0.002223567
     0.002252989
     0.002433312
     0.001698963
    -0.000000130
     0.001723899
     0.001576322
    -0.000000021
     0.000000039
     0.000283346
    -0.000000155
    -0.000000002
     0.000495434
     0.002503118
    -0.000412813
     0.000606804
    -0.000975858
    -0.000009736
     0.001625900
     0.000587278
    -0.000002760
     0.002544363
    -0.000002602
     0.002026640
    -0.000000003
     0.001233810
    -0.000003485
     0.000392062
     0.000177287
     0.002165331
     0.002336452
    -0.000392640
     0.000656926
     0.000634971
     0.000000079
     0.001358563
    -0.000000001
     0.002189900
    -0.000000401
     0.001986970
     0.002547474
     0.000026023
    -0.000029930
     0.002078399
     0.000979294
    -0.000007022
     0.002126847
     0.001782302
    -0.000000029
    -0.000004794
     0.000185938
    -0.000007086
     0.002441211
     0.000000251
    -0.000014905
     0.002000316
     0.002042879
     0.000246424
    -0.000156803
    -0.000000301
     0.001194288
    -0.000000001
    -0.000002439
    -0.000017991
     0.001024341
     0.001329993
    -0.000041012
     0.001594120
     0.001303265
     0.002005772
    -0.000361795
     0.001612005
    -0.000000002
     0.001573460
     0.000004001
     0.002148665
     0.002409861
     0.002470620
    -0.000000006
     0.001861305
     0.002415527
    -0.000000316
     0.000024674
     0.001322887
    -0.000032843
    -0.000000002
    -0.000012307
    -0.000055357
    -0.000001889
     0.001763705
     0.002223898
     0.002327937
    -0.000000497
     0.000030596
     0.001968388
     0.000097163
    -0.000022336
     0.000004049
    -0.000000013
     0.000709347
    -0.000001493
     0.001178490
     0.002497471
     0.002511442
     0.000368837
     0.002504165
     0.002565234
     0.001006492
     0.002030840
     0.002607365
     0.001585572
    -0.000000574
     0.001577687
     0.000000340
    -0.000048053
     0.001651846
     0.001307815
    -0.000016999
     0.000013532
     0.001619671
     0.002026846
    -0.000000398
    -0.000747044
     0.001951967
    -0.000001670
     0.002014808
     0.002165053
    -0.000031875
    -0.000000042
     0.002218541
     0.001390849
    -0.000000003
     0.000106776
     0.002560123
     0.000272726
    -0.000000005
     0.000028690
     0.000635165
    -0.000000133
     0.001050038
    -0.000009099
    -0.000185148
     0.000040389
    -0.000175623
     0.001871056
     0.000975881
     0.001746301
     0.001187354
    -0.000012464
    -0.000000787
    -0.000000006
    -0.000010500
    -0.000010408
     0.000851971
     0.000216763
     0.000049768
     0.000222929
     0.001919223
     0.000193606
     0.001330981
    -0.000011690
     0.000030607
     0.000000003
     0.000285853
     0.001743971
     0.002375515
     0.002310347
     0.001870765
     0.002245848
     0.002355395
    -0.000001004
     0.002348612
     0.002525377
     0.000804236
    -0.000000105
     0.002424101
     0.001671092
    -0.000000684
     0.000000527
     0.001350073
     0.002718987
     0.001525458
    -0.000048156
     0.002441262
    -0.000000000
    -0.000000237
    -0.000089916
    -0.000004683
     0.002632640
     0.001121269
     0.001547033
     0.002607200
     0.002180213
    -0.000000581
     0.002038190
     0.001295482
     0.000506726
     0.000507933
     0.002485789
     0.000353130
     0.001607427
     0.002302461
     0.002605277
     0.001808388
     0.000048233
     0.002244222
     0.000005942
    -0.000000772
     0.002719790
     0.001016627
     0.000666640
    -0.000000073
    -0.000000039
     0.000574697
     0.000090494
    -0.000054420
     0.001541542
     0.001871175
     0.001591908
     0.001902435
    -0.000122559
     0.000791013
     0.002390007
     0.000134571
    -0.000000858
     0.002096289
    -0.000000322
     0.002272719
     0.001863380
     0.000085817
     0.002027893
     0.001926331
     0.002485901
     0.002214405
    -0.000000680
     0.001035012
     0.002477987
     0.000037373
     0.002187509
     0.000011300
    -0.000002061
     0.002536934
    -0.000031313
     0.002040422
    -0.000026553
     0.002027940
     0.000022197
    -0.000009521
     0.000737825
    -0.000102472
    -0.000000348
     0.002171057
    -0.000028677
     0.002129342
    -0.000000211
    -0.000000003
    -0.000000001
     0.002270650
     0.002021757
    -0.000019708
     0.000789466
     0.000052292
    -0.000379480
     0.002495240
     0.000000011
    -0.000000512
     0.002247921
     0.002134024
    -0.000662994
    -0.000002603
     0.002034012
     0.000000702
    -0.000018336
    -0.000006673
     0.001719147
     0.000555322
    -0.000000215
    -0.000000107
     0.002460417
     0.000222769
    -0.000000506
     0.001127032
     0.000605058
    -0.000013258
    -0.000000002
     0.002181727
     0.001224542
    -0.000048424
     0.000868644
     0.000000165
    -0.000144011
     0.000047785
    -0.000070240
     0.000000406
     0.000160563
    -0.000048776
     0.000500244
    -0.000133380
    -0.000000373
     0.002007681
    -0.000020760
     0.001279170
     0.001117844
     0.002368571
     0.002573212
    -0.000000056
    -0.000135604
     0.002219260
    -0.000000011
     0.000410995
    -0.000086554
    -0.000000051
    -0.000041045
     0.002182084
    -0.000003280
    -0.000000284
     0.000745292
    -0.000051727
     0.001567593
    -0.000006852
     0.001980899
    -0.000000177
     0.000728459
     0.001412736
    -0.000013467
     0.002304845
    -0.000050742
    -0.000000160
     0.000660868
     0.002165420
    -0.000000007
    -0.000045178
    -0.000527133
     0.002304774
    -0.000321547
     0.000161270
    -0.000036182
     0.001297404
     0.002042845
     0.000413264
    -0.000376069
    -0.000000001
     0.001692372
     0.000675620
    -0.000000038
    -0.000032208
     0.000128419
     0.002242912
     0.001454760
     0.001801660
     0.001627039
     0.002157539
     0.000678811
     0.000578843
     0.001870746
    -0.000000204
    -0.000006756
     0.002402951
    -0.000000404
    -0.000088306
     0.000532874
     0.001325868
     0.000657295
    -0.000143359
    -0.000005216
    -0.000000001
    -0.000000004
     0.001711730
     0.001490104
     0.001624944
     0.001492017
    -0.000001550
     0.002075593
     0.001440886
     0.000792002
    -0.000003469
    -0.000000004
     0.001966732
    -0.000000087
     0.001797547
     0.001371299
    -0.000000009
    -0.000008231
     0.001174802
    -0.000030947
     0.001890940
     0.001441033
    -0.000295572
    -0.000003904
     0.002257124
    -0.000200864
     0.001763300
     0.001436175
     0.001675377
     0.002253254
    -0.000066307
     0.001728712
     0.000699309
     0.001932629
    -0.000428396
     0.000574326
    -0.000001551
    -0.000010554
     0.000923557
    -0.000021851
    -0.000040614
    -0.000640152
    -0.000000818
     0.002414557
     0.000642273
    -0.000002491
     0.002621137
     0.000731602
    -0.000000509
    -0.000018476
     0.002337520
    -0.000000065
     0.002600551
     0.001866664
    -0.000000051
    -0.000000008
     0.002219646
     0.001842999
     0.002318791
     0.002626351
     0.001742626
    -0.000000002
     0.001969951
    -0.000033395
    -0.000010236
     0.000031584
    -0.000000009
     0.002599934
     0.002218540
    -0.000010464
     0.002414503
     0.000002151
     0.002194519
    -0.000012401
     0.001525023
     0.000151444
     0.000000341
    -0.000000004
     0.000024086
    -0.000000489
    -0.000000229
     0.002281165
     0.000013854
    -0.000000003
     0.002504159
    -0.000012188
     0.000055656
     0.000000000
    -0.000009309
     0.000443178
     0.000000000
     0.000242758
    -0.000000009
     0.001112542
    -0.000000436
     0.001176715
    -0.000001575
    -0.000006916
     0.001365544
     0.000593495
     0.001794429
     0.000463204
    -0.000000053
     0.000357139
     0.002656629
     0.002471039
     0.000914636
    -0.001355768
     0.002222817
    -0.000980954
     0.000763535
    -0.000284996
     0.002250077
    -0.000000351
     0.002282083
    -0.000031589
     0.000785973
     0.001325967
     0.002534084
    -0.000000079
     0.000000024
    -0.000005354
     0.001816344
     0.000102920
     0.000101795
     0.002686447
     0.000203965
     0.000157402
     0.001868791
     0.002434249
     0.000416980
     0.002146247
    -0.000048161
    -0.000000043
    -0.000020927
     0.000144213
     0.001856737
     0.000138495
     0.002298368
     0.002218864
    -0.000038887
     0.001996702
     0.002612680
    -0.000005749
    -0.000000007
    -0.000008164
     0.001740116
    -0.000000007
     0.001640776
     0.000524714
     0.002523793
     0.000827220
     0.000128528
     0.000920683
    -0.000342226
     0.001427699
     0.001561876
     0.001742154
     0.001735727
    -0.000000000
     0.001680781
     0.002250363
     0.000773046
     0.001263356
     0.002264393
     0.002061272
    -0.000006907
     0.000563222
     0.001425819
    -0.000003511
     0.002343692
     0.002471636
    -0.000008758
     0.000686173
     0.000000037
     0.002587431
     0.002156865
    -0.000021057
     0.000241224
    -0.000000104
     0.001794573
     0.000019173
    -0.000000009
     0.002297460
     0.000399217
    -0.000035167
     0.000023887
     0.000577290
     0.000028989
     0.002958921
     0.000430809
     0.000507952
     0.000535413
     0.000308907
     0.002488811
    -0.000002331
     0.002092550
     0.002278109
     0.002294458
    -0.000000007
    -0.000000002
     0.002786325
     0.002584276
     0.001930931
     0.002042655
    -0.000000000
     0.001181480
     0.000000984
     0.000013862
     0.001095330
     0.001919522
    -0.000001617
    -0.000001039
    -0.000000001
     0.002643975
     0.002477377
     0.002176028
    -0.000000054
     0.000281274
     0.002291646
     0.001101455
     0.001111110
    -0.000002550
    -0.000002955
    -0.000002497
     0.002033690
     0.000753990
     0.000666278
     0.001348177
     0.000172682
     0.000164245
    -0.000121350
    -0.000000214
     0.001825533
    -0.000000200
    -0.000000666
     0.000192199
     0.000162651
     0.000000115
     0.000713029
     0.001014806
     0.002068480
     0.000009022
     0.000102062
     0.002683958
     0.002576248
     0.002554103
     0.001586712
     0.001877885
    -0.000035717
    -0.000021999
     0.001184961
     0.001972021
     0.001598342
     0.001761556
    -0.000007674
    -0.000008839
    -0.000036286
     0.000736277
    -0.000060854
     0.000009316
    -0.000000015
     0.001455584
    -0.000001696
     0.001597400
     0.002532924
     0.002420571
     0.002522027
     0.000001501
     0.001379776
     0.002581200
     0.002600861
     0.003009787
     0.000025633
     0.000000820
     0.001627711
    -0.000000468
     0.000252771
     0.001346538
     0.001740824
    -0.000000408
     0.001854657
     0.001675658
    -0.000121454
    -0.000014931
     0.001951232
     0.000143427
     0.000000010
     0.002181680
     0.002532956
    -0.000000003
     0.000921115
     0.002262840
    -0.000000035
     0.002559453
     0.000015480
     0.000046722
    -0.000000005
     0.000304448
    -0.000008873
     0.001074936
    -0.000000159
     0.000691606
    -0.000000052
    -0.000129261
     0.000452891
    -0.000870106
     0.001892912
    -0.000018767
     0.000648725
     0.001759532
     0.001482439
    -0.000000975
     0.000000305
     0.000843580
    -0.000011329
     0.000000040
     0.000202042
     0.001868490
     0.000261825
     0.000446769
     0.000000184
     0.000035887
    -0.000000000
     0.000054095
    -0.000010022
     0.001845727
     0.002404710
     0.002274006
     0.001480732
     0.002264340
     0.002347248
     0.002314922
     0.002357100
    -0.000000002
     0.002375309
    -0.000000073
     0.000302814
     0.000060843
     0.001458620
     0.002568869
     0.002363655
    -0.000001514
     0.000000001
     0.001917644
     0.002331186
     0.002063632
     0.002332088
     0.000017010
    -0.000000022
     0.002390309
     0.002453867
     0.000000002
    -0.000000609
    -0.000025442
     0.002409106
    -0.000038038
    -0.000030327
     0.001507063
     0.001337211
    -0.000024766
     0.000330034
    -0.000439972
     0.002355776
     0.001704286
     0.000732262
     0.002183613
     0.001663716
     0.000678237
     0.000031060
    -0.000059655
     0.000013354
     0.002528468
     0.002421126
    -0.000000538
    -0.000017419
    -0.000018541
    -0.000000216
    -0.000000001
     0.000070410
    -0.000237859
     0.001498878
     0.000869545
     0.000836797
    -0.000000550
     0.001889776
    -0.000560402
     0.001040024
    -0.000000297
     0.002152682
    -0.000023671
    -0.000036210
     0.000000443
     0.001098349
    -0.000031888
    -0.000000006
     0.001100486
     0.001090320
    -0.000000000
    -0.000000004
     0.001539506
    -0.000032548
     0.002604397
     0.002456014
     0.001954829
     0.002477559
     0.000267425
     0.001960147
     0.002210504
     0.002026476
     0.001862439
    -0.000316414
    -0.000080651
     0.000000000
    -0.000000004
     0.002292484
    -0.000008643
     0.002389331
     0.000048934
    -0.000000009
     0.002698010
     0.000809876
    -0.000000002
     0.002164995
    -0.000000185
    -0.000159059
     0.002823581
     0.001098981
     0.000185448
    -0.000456922
     0.002546504
     0.001736829
    -0.000000011
     0.002263772
     0.000221167
    -0.000009856
    -0.000015409
    -0.000000002
     0.000919701
     0.002525254
     0.000001752
    -0.000000012
    -0.000091301
     0.002727203
     0.001814954
    -0.000000960
     0.001953589
    -0.000011652
    -0.000000512
     0.002731908
     0.000128514
    -0.000000005
     0.001397941
     0.000000705
    -0.000003683
     0.001336781
    -0.000000007
     0.001653338
    -0.000000317
     0.002122665
     0.001028726
     0.000702317
     0.001771492
     0.002161055
    -0.000002799
     0.001442923
     0.000268465
    -0.000036939
    -0.000000016
     0.002551589
     0.002334016
    -0.000009457
    -0.000087084
     0.002736332
     0.000006349
     0.001909815
     0.000228991
     0.002251114
    -0.000000681
     0.002421836
     0.000000001
     0.000398582
    -0.000016682
     0.000921091
    -0.001072999
     0.002147715
     0.000096233
     0.000996633
    -0.000003947
     0.002057622
     0.002471510
     0.000005973
     0.000461745
     0.002336635
     0.000300117
     0.002127297
    -0.000001414
    -0.000000005
     0.001027019
     0.002492535
     0.000012524
    -0.000011095
    -0.000015290
    -0.000000055
    -0.000107506
     0.000000001
     0.002451185
     0.002406725
    -0.000019767
     0.000717260
     0.002344765
     0.001931131
    -0.000022149
    -0.000034741
     0.002140793
     0.002382009
     0.002550313
    -0.000084681
    -0.000000624
     0.002215707
     0.002124346
     0.001899452
     0.001623870
     0.002677038
     0.001616021
     0.000026452
     0.001980833
    -0.000055984
    -0.000012047
    -0.000014870
    -0.000000001
     0.000661462
     0.000296850
    -0.003954804
     0.001652648
     0.000779155
     0.000007095
     0.002162291
    -0.000000003
     0.000224791
     0.000003191
     0.001244729
     0.002630699
    -0.000030998
     0.000030456
    -0.000000091
    -0.000143627
     0.000553741
     0.000003430
    -0.000831269
     0.000000045
    -0.000006348
    -0.000000684
    -0.000000004
     0.000775858
    -0.000000314
    -0.000042703
    -0.000000073
    -0.000039823
    -0.000000162
    -0.000001527
    -0.000040410
     0.002791197
    -0.000006821
     0.000374413
     0.001280944
     0.002150252
     0.000185888
    -0.000000005
     0.002316880
     0.000126613
    -0.000003364
     0.000003369
    -0.000007861
     0.001824691
    -0.000069384
    -0.000000001
     0.001827164
    -0.000000968
    -0.000000386
    -0.000019104
     0.001486821
    -0.000000854
     0.000633061
    -0.000000000
     0.000213148
     0.002031129
     0.002267428
    -0.000000447
     0.001910293
     0.000082314
     0.001650693
    -0.000257812
     0.000000353
     0.003132322
    -0.000152968
    -0.000000145
     0.003194897
     0.000000016
    -0.000000484
     0.000736704
    -0.000003826
     0.000144905
     0.000165963
     0.000971982
    -0.000411076
    -0.000042791
    -0.000006411
    -0.000000001
     0.000001097
    -0.000021005
     0.000175513
     0.002658788
     0.002312555
     0.001559649
     0.002484082
    -0.000001341
    -0.000002332
    -0.000002919
     0.002560244
     0.000880789
     0.002338579
     0.002653982
    -0.000110868
     0.001927558
     0.001303619
     0.000302357
    -0.000018230
     0.000406295
     0.000978852
     0.000130150
    -0.000000583
     0.001930600
     0.002043937
    -0.000000174
     0.002096890
    -0.000000242
     0.002674209
     0.002014929
    -0.000105927
    -0.000000005
     0.000020030
     0.002295628
     0.001137511
     0.000529984
     0.002592734
    -0.000000452
     0.000000001
    -0.000018231
    -0.000000010
     0.000000022
     0.000000083
    -0.000006282
     0.000352889
    -0.000000148
    -0.000000001
     0.002977454
     0.000743358
     0.002183008
     0.001557217
    -0.000000511
    -0.000029549
     0.000000015
     0.000160149
     0.000933274
     0.000734098
     0.000000754
     0.002210526
     0.000001494
    -0.001141458
    -0.000002452
    -0.000000004
     0.002125698
     0.002514081
    -0.000000005
     0.002308436
     0.000792991
     0.002657876
     0.002412564
     0.002479893
     0.002205755
     0.000822912
     0.002303871
    -0.000000123
    -0.000000001
     0.001562058
    -0.000000007
     0.001175328
     0.000543339
     0.002648383
     0.000337483
     0.002352538
    -0.000011342
    -0.000365483
    -0.000004310
     0.000334652
     0.002574875
     0.001588060
     0.001848614
     0.002509006
    -0.000022281
     0.000401681
     0.001816276
    -0.000000002
     0.000250194
     0.000959957
     0.002462211
     0.001893796
     0.002552945
     0.001519674
     0.002494376
     0.001345614
     0.002159729
    -0.000000022
    -0.000002808
     0.000233663
     0.002674613
     0.001562610
     0.000011523
    -0.000007611
     0.000061040
    -0.000000023
     0.001631994
     0.001876917
     0.001672333
     0.001838431
    -0.000040309
     0.001423319
     0.002239450
    -0.000000002
    -0.000010238
     0.002144956
     0.002555382
     0.001543954
     0.000000417
     0.000031435
     0.001957311
     0.002043552
     0.002327929
    -0.000000000
     0.000204218
     0.001156255
     0.000005995
     0.002474019
     0.002504599
     0.000011873
    -0.000011621
     0.002408281
     0.000184145
     0.001777686
    -0.000016663
    -0.000008977
     0.001825800
     0.000534391
    -0.000187558
     0.000794294
     0.000348475
    -0.000699030
     0.002109974
     0.000022423
    -0.000002317
    -0.000011699
     0.002003911
     0.000000219
     0.000388997
    -0.000576896
     0.000010303
     0.002497164
     0.001944694
    -0.000000008
    -0.000026826
     0.001418523
    -0.000000505
     0.000005347
     0.002469426
    -0.000063091
     0.001609139
    -0.000001524
     0.002174749
     0.001749942
     0.000561647
     0.000092159
     0.002317201
     0.001496800
    -0.000022840
     0.000001829
    -0.000004147
     0.002253336
     0.000030332
    -0.000000404
     0.000001767
    -0.000000000
     0.001999921
     0.001724585
     0.001918820
     0.001505355
     0.000166474
     0.001578623
     0.000386178
    -0.000000002
     0.002255694
     0.001765421
     0.000193190
    -0.000062536
    -0.000000043
    -0.000006784
     0.001581204
     0.002299058
    -0.001503471
     0.000121625
     0.001935778
    -0.000065853
     0.002480200
     0.001926749
     0.000117282
     0.001221465
    -0.000026654
    -0.000316071
     0.002218417
    -0.000027862
    -0.000000002
    -0.000000006
     0.000232902
    -0.000000006
     0.000508837
     0.000115876
     0.002477527
     0.002487237
     0.002347893
     0.001975556
    -0.000000102
     0.000000227
     0.000000261
     0.002401926
     0.002777490
     0.002275366
     0.002346320
    -0.000000629
    -0.000000415
     0.001646708
    -0.000033202
     0.000022468
     0.000000026
     0.000845842
    -0.000019326
    -0.000000001
     0.000001322
     0.000165278
    -0.000000080
     0.001747302
     0.001281832
     0.002356642
     0.001033558
     0.001944179
     0.000590846
    -0.000387908
    -0.000000627
     0.000002149
     0.001235540
    -0.000000044
     0.002234686
     0.001805151
     0.002535446
     0.000394992
    -0.000001590
    -0.000000006
    -0.000012716
    -0.000000173
     0.000370388
     0.000793193
     0.001505704
    -0.000687726
     0.000380401
     0.001513955
    -0.000228185
     0.002004881
     0.000316496
     0.002092269
    -0.000042235
    -0.000001704
     0.000001743
     0.000448734
     0.000370602
     0.000791065
    -0.000000457
     0.000256067
     0.001996015
    -0.000000619
     0.000769341
    -0.000000001
    -0.000007857
     0.002347371
     0.002565575
    -0.000000028
    -0.000031487
     0.002527658
     0.002323952
     0.002044212
     0.001786784
     0.002091703
     0.002225847
    -0.000132019
    -0.000411971
     0.000054205
    -0.000000164
    -0.000833888
     0.000163106
    -0.000901576
    -0.000847593
    -0.001015417
    -0.001102614
    -0.000446347
     0.000000101
    -0.001224973
     0.000018740
     0.000057126
    -0.000454202
     0.000620855
    -0.000014695
    -0.000966215
    -0.000313469
     0.000013203
     0.000000043
    -0.000983752
     0.000166431
    -0.000000001
    -0.000990493
    -0.000990544
    -0.000949620
     0.000014483
    -0.000000744
    -0.000699299
     0.000229691
    -0.000223268
    -0.000180974
    -0.001031036
    -0.000686042
    -0.000719388
     0.000001936
    -0.000128902
    -0.000264944
     0.000000119
    -0.000547829
     0.000000082
    -0.000007464
    -0.000515563
     0.000067376
    -0.001060372
    -0.000826531
    -0.000021859
    -0.000849024
    -0.000624084
     0.000045851
     0.000000015
     0.000183581
     0.000009707
    -0.000525672
     0.000000002
    -0.000226432
    -0.000429657
     0.000023548
    -0.001142787
    -0.000000030
    -0.000907279
    -0.000856305
    -0.000055193
     0.000000026
    -0.000327846
     0.000052547
    -0.001116387
     0.000436956
    -0.000125655
    -0.000730514
     0.000016294
    -0.001189184
     0.000000022
    -0.000986614
    -0.000351516
    -0.000000048
    -0.000833235
    -0.000118696
    -0.000496686
     0.000016925
    -0.001046623
    -0.000165775
    -0.000346088
     0.000097520
     0.000008252
     0.000041091
    -0.000770544
     0.000052535
    -0.000908271
    -0.000004111
     0.000027437
     0.000001084
    -0.000851707
    -0.000163230
    -0.000104716
    -0.001014062
     0.000020927
     0.000155322
    -0.000854627
    -0.001062519
    -0.000869880
    -0.000000221
     0.000044304
    -0.000068047
    -0.000115774
     0.000032026
    -0.000272416
    -0.000664158
     0.000000008
    -0.000983809
     0.000062484
     0.000009442
    -0.000486446
     0.000090966
     0.000002699
     0.000176246
    -0.000957276
    -0.000000075
    -0.000881201
    -0.000546877
     0.000052839
     0.000072460
    -0.000002658
    -0.000626631
    -0.001123533
    -0.000847128
     0.000000028
    -0.001223903
     0.000107212
     0.000000211
    -0.001053294
    -0.000554392
    -0.001050679
    -0.000506120
    -0.000704611
     0.000000003
    -0.001301653
     0.000173677
    -0.000748015
    -0.000950714
    -0.000001201
    -0.000900427
    -0.000938687
     0.000119291
     0.000033725
    -0.000737699
     0.000000109
     0.000001769
    -0.000857432
    -0.000000002
    -0.000969432
    -0.000032151
    -0.000360667
     0.000008613
    -0.000674557
    -0.000000000
    -0.000409547
     0.000010811
    -0.000507800
     0.000246543
    -0.001097165
    -0.000532559
     0.000098649
    -0.001161920
     0.000004915
    -0.000951747
     0.000000001
    -0.000176096
     0.000000004
    -0.001252416
    -0.000699487
    -0.001088337
    -0.001094206
    -0.000010712
     0.000078660
    -0.000213047
     0.000044050
    -0.000518462
    -0.000000333
     0.000327574
    -0.001072825
    -0.000000298
    -0.001175120
    -0.000919056
    -0.000717132
    -0.000809906
     0.000047809
    -0.000077907
    -0.000641269
    -0.001054481
    -0.000073618
    -0.000951516
    -0.000833118
    -0.000951166
     0.000055545
     0.000006563
    -0.001254376
     0.000076408
    -0.000994607
    -0.001208811
    -0.000782811
    -0.000087454
    -0.000870073
    -0.000153830
     0.000159934
    -0.000068782
    -0.000488768
    -0.001064161
    -0.000064390
    -0.001329937
    -0.000934687
    -0.001038664
    -0.001059498
    -0.000087716
    -0.000000005
    -0.000086599
    -0.000000005
    -0.000575699
    -0.000492203
     0.000139557
    -0.000406910
     0.000000003
    -0.000141333
     0.000033784
     0.000000016
     0.000026308
     0.000000005
    -0.001142915
    -0.000000008
     0.000000001
    -0.001237583
    -0.000000007
    -0.000899588
    -0.000752349
     0.000056597
    -0.000557574
     0.000056291
    -0.000045810
    -0.000000610
     0.000087064
    -0.000788195
    -0.000000587
    -0.000896789
    -0.000904823
    -0.000443974
     0.000000267
     0.000258890
     0.000210568
    -0.000709022
     0.000000043
    -0.000916808
    -0.001058602
    -0.001215891
     0.000044837
    -0.000823275
    -0.000162991
     0.000004125
    -0.000829756
     0.000211442
     0.000139886
     0.000002783
    -0.000044182
    -0.000042578
    -0.000738611
     0.000000069
    -0.000075029
    -0.000107543
     0.000039015
    -0.000512630
     0.000015904
    -0.001052048
    -0.000109929
     0.000000131
     0.000098320
    -0.000508723
    -0.001055505
    -0.001358883
    -0.000052093
    -0.000403879
     0.000173966
    -0.001066919
    -0.000390359
     0.000000041
    -0.000298481
     0.000004448
    -0.000689391
    -0.000356868
    -0.001009811
    -0.001055387
    -0.000792606
     0.000153497
     0.000019142
    -0.000446124
    -0.000534188
    -0.000819567
    -0.000428414
    -0.000594560
    -0.000350672
    -0.000463424
     0.000003209
    -0.000155789
    -0.000000025
    -0.000061134
    -0.000983349
    -0.000000023
     0.000000001
     0.000058455
     0.000052944
     0.000190826
    -0.001147321
    -0.000075972
     0.000000015
    -0.001323076
    -0.000072462
     0.000140730
     0.000206078
     0.000033817
     0.000000000
    -0.000808639
     0.000001038
    -0.000980184
    -0.000989649
    -0.001019872
    -0.000090375
     0.000189171
     0.000000007
     0.000001037
     0.000020747
    -0.001312854
    -0.000362510
    -0.000123603
    -0.001247588
     0.000016709
    -0.000178290
     0.000000111
    -0.000000011
    -0.000024379
    -0.000053708
     0.000107203
    -0.000748772
    -0.000258893
    -0.001286384
    -0.000915548
    -0.000950794
     0.000009277
    -0.001051525
     0.000007393
     0.000000084
     0.000016981
    -0.001413978
     0.000065561
    -0.000053623
    -0.000736168
    -0.001038326
     0.000000082
    -0.001468137
     0.000002625
     0.000000005
    -0.000291927
    -0.000627648
    -0.000000984
    -0.000524029
    -0.000868762
    -0.001073890
    -0.000725734
    -0.000005523
    -0.000633004
     0.000109001
    -0.000350466
     0.000012866
    -0.000000003
    -0.000827933
    -0.000652099
    -0.000921035
    -0.000105175
    -0.000640086
     0.000139074
     0.000000001
    -0.000009570
     0.000158762
    -0.000395930
     0.000103418
     0.000077476
    -0.000897657
    -0.000912771
    -0.000000004
    -0.000031228
    -0.000012717
    -0.000399297
     0.000010270
    -0.000568825
     0.000007011
    -0.000319897
     0.000689749
    -0.000558265
    -0.000226700
     0.000000164
    -0.000493960
    -0.000183155
    -0.001112165
    -0.000000587
    -0.000001059
     0.000000058
     0.000000164
    -0.000892267
     0.000025761
    -0.000171668
    -0.000187369
    -0.000883481
     0.000062137
    -0.000982115
     0.000588874
    -0.000855738
    -0.000005959
    -0.000894845
    -0.000341821
    -0.001094696
    -0.000657682
     0.000065281
    -0.000073105
    -0.000934588
     0.000176764
     0.000032115
     0.000052155
    -0.000854739
     0.000136357
     0.000005344
    -0.000000014
    -0.001292749
     0.000001210
    -0.000687816
     0.000023939
    -0.000470436
    -0.000000157
    -0.001183748
     0.000061667
    -0.000632637
    -0.001032493
     0.000000053
    -0.000000749
    -0.001044174
    -0.000360923
    -0.000766620
    -0.000868774
    -0.000430880
    -0.000019188
    -0.000469864
    -0.001103660
     0.000001293
    -0.000661991
    -0.000215573
     0.000000014
     0.000051870
     0.000000001
    -0.000000012
    -0.001006159
    -0.000476345
    -0.000685539
     0.000000046
    -0.000244909
    -0.000328206
    -0.000945179
    -0.001036993
    -0.000929659
     0.000005867
    -0.001224782
     0.000000003
     0.000000232
    -0.000114996
    -0.001016598
    -0.000932852
    -0.000408844
    -0.001072995
    -0.000495981
    -0.000000369
    -0.001012788
     0.000018830
    -0.000181701
    -0.000000003
    -0.000060990
    -0.001145708
    -0.000898087
    -0.000702941
     0.000160923
    -0.001200238
    -0.000005018
    -0.001046762
    -0.000251375
    -0.000151180
    -0.000391254
     0.000221262
    -0.001309451
    -0.000140172
    -0.000839427
    -0.000708804
    -0.000791954
     0.000052685
    -0.001005760
     0.000016328
     0.000422878
    -0.001036586
     0.000000074
    -0.000089990
    -0.000998954
     0.000000001
    -0.000746993
    -0.001002070
    -0.001050968
    -0.000340184
     0.000221357
     0.000044325
    -0.000385675
    -0.000000052
    -0.000458150
    -0.000194638
    -0.000001838
    -0.000996570
    -0.001147264
    -0.000738965
    -0.000494332
    -0.000355548
    -0.000024876
     0.000012620
    -0.000512289
    -0.000137750
    -0.000954179
    -0.001034649
    -0.000913518
     0.000274363
    -0.000879429
    -0.001145363
     0.000009453
    -0.000259341
    -0.001079151
    -0.000999019
    -0.000947522
    -0.000466011
     0.000074118
    -0.000898277
    -0.000019263
     0.000129599
    -0.000499865
    -0.000153619
    -0.001028969
    -0.001228475
    -0.000847617
    -0.000805595
    -0.000898797
     0.000000030
     0.000000000
    -0.000000005
    -0.000089169
    -0.000000019
    -0.000152924
    -0.000446579
    -0.000274343
    -0.000181720
     0.000000305
     0.000094452
     0.000150558
     0.000011776
     0.000000036
     0.000115837
    -0.000000002
    -0.001085645
    -0.000001694
    -0.000000047
    -0.001235870
    -0.000815239
    -0.000512474
    -0.000262453
     0.000362030
     0.000002260
    -0.000000227
     0.000265638
    -0.000006360
    -0.000000803
    -0.000587880
    -0.000943644
    -0.000982291
     0.000000021
    -0.000049328
     0.000000043
    -0.000882891
     0.000217141
     0.000015317
    -0.000940755
    -0.000893411
    -0.001174303
    -0.000702923
     0.000000608
     0.000240792
     0.000139762
     0.000000022
    -0.000690432
     0.000200297
     0.000005683
     0.000000075
     0.000021303
    -0.000027418
    -0.000105802
    -0.000600728
    -0.000083573
     0.000246664
     0.000000025
    -0.000724174
     0.000542043
    -0.001020285
     0.000000002
     0.000015334
     0.000209263
    -0.000509971
    -0.001083462
    -0.000000316
    -0.001271069
    -0.000186993
    -0.000082376
    -0.000113342
    -0.000753702
    -0.001012814
    -0.000542434
     0.000000453
     0.000097600
    -0.000266302
    -0.000740259
    -0.001000460
    -0.001009600
     0.000226632
    -0.000381743
    -0.000253884
     0.000001069
    -0.000391261
    -0.000501023
    -0.000564989
    -0.000735912
    -0.000640441
     0.000001541
    -0.000505610
    -0.000000004
     0.000053469
    -0.000096878
    -0.000000093
    -0.000903430
     0.000082333
     0.000000091
     0.000000045
     0.000277857
    -0.000042029
    -0.000033329
    -0.001073309
     0.000060527
    -0.000179304
    -0.001328330
    -0.000230311
    -0.000023577
     0.000125158
     0.000000185
    -0.000730531
    -0.000000867
    -0.000896470
    -0.000910885
    -0.000903218
     0.000181408
     0.000726160
     0.000000007
    -0.001171929
     0.000000408
    -0.000024283
    -0.001137958
     0.000082765
     0.000000201
    -0.000149842
    -0.000000058
     0.000000003
    -0.001163141
    -0.000259701
    -0.000659418
    -0.001405248
    -0.000987098
    -0.000471930
     0.000097621
    -0.000372713
    -0.001155715
    -0.000000002
     0.000000745
     0.000106611
    -0.000061739
    -0.000453731
    -0.001243576
    -0.000484903
    -0.001266716
    -0.000907412
    -0.000000921
     0.000089888
    -0.000554224
    -0.000000720
    -0.001182616
    -0.001113116
    -0.001036469
    -0.001105833
    -0.001174201
    -0.000437308
    -0.000538272
    -0.001082254
    -0.001190982
    -0.001322036
    -0.000787557
    -0.000886954
    -0.001094126
    -0.000000477
    -0.000027897
     0.000000017
    -0.000848219
    -0.000973701
    -0.000620772
    -0.000583703
    -0.001425317
     0.000000023
     0.000172558
     0.000061711
     0.000000003
     0.000000005
    -0.000187316
    -0.000000040
    -0.000626209
    -0.000001727
     0.000001758
    -0.000000000
    -0.000426499
    -0.000337536
    -0.000572515
    -0.000503282
     0.000074552
     0.000169820
     0.000057605
    -0.001335585
    -0.000000001
    -0.000884074
    -0.000004864
     0.000004092
     0.000006360
    -0.000823243
    -0.000417156
    -0.000966069
    -0.000202507
    -0.000000034
     0.000000001
     0.000008233
    -0.000002431
    -0.000496773
    -0.001043067
     0.000136306
    -0.001197612
    -0.001176032
    -0.001311081
    -0.001433545
    -0.000000504
     0.000013035
    -0.000325807
    -0.001146620
     0.000107775
    -0.000999821
     0.000272136
     0.000000076
     0.000068457
    -0.000009124
     0.000079988
    -0.000788452
    -0.000276199
    -0.000027191
    -0.000000098
    -0.000685331
    -0.000196333
     0.000007686
    -0.000052656
    -0.000710466
     0.000000145
    -0.001008715
    -0.000609351
     0.000017214
    -0.001199344
    -0.001097166
     0.000016183
    -0.001147102
    -0.000000717
    -0.000482799
    -0.001316807
    -0.000026308
    -0.000773453
     0.000031175
    -0.001410531
    -0.001101053
    -0.001256815
     0.000065888
    -0.000298883
     0.000056041
    -0.000964064
    -0.000624325
    -0.001063791
    -0.001164282
    -0.000316492
    -0.000052711
     0.000073429
    -0.000883020
    -0.000182848
    -0.001094433
     0.000015180
    -0.000979250
    -0.000933141
    -0.000842969
     0.000000038
     0.000027574
    -0.000002645
    -0.000836027
    -0.000685145
     0.000000006
     0.000036221
    -0.001203642
    -0.000007741
    -0.000448630
    -0.000691838
    -0.000964740
     0.000066485
    -0.000576916
     0.000027967
    -0.000437088
    -0.000468100
    -0.000875609
    -0.000372298
    -0.000000004
     0.000357746
     0.000001943
    -0.000455022
    -0.000213235
    -0.000967408
    -0.001069157
     0.000000005
     0.000013384
    -0.000974417
     0.000077218
    -0.001466698
    -0.000000380
    -0.000290207
    -0.000000146
     0.000003689
     0.000078839
     0.000092000
    -0.000824776
    -0.000012150
    -0.000767790
    -0.001133587
    -0.001452481
     0.000032483
    -0.001165922
     0.000540815
    -0.000995821
    -0.000690223
    -0.000559307
    -0.000549406
    -0.001581700
     0.000010341
     0.000003003
     0.000005518
    -0.000089187
    -0.001456661
    -0.000118719
    -0.000749246
    -0.001144247
    -0.001086938
    -0.000000580
     0.000045021
     0.000051246
    -0.001094200
    -0.000002247
     0.000000011
    -0.000366668
    -0.000737356
    -0.001174251
    -0.000000001
     0.000000001
     0.000000010
     0.000000018
    -0.000315912
    -0.000455939
    -0.000420728
    -0.000263565
    -0.000176527
    -0.000797797
    -0.000305982
    -0.000007007
    -0.000602794
    -0.000037312
    -0.000063793
    -0.000000017
     0.000000056
    -0.000061000
    -0.000667663
    -0.000780899
    -0.000687084
    -0.000662209
    -0.000002942
    -0.000756156
    -0.001069220
    -0.000342046
    -0.000638581
     0.000000695
     0.000054413
    -0.000584339
    -0.001048801
    -0.000831213
    -0.000727986
    -0.000028942
    -0.001062947
    -0.000471078
     0.000000001
     0.000000003
     0.000000012
    -0.000970921
     0.000002336
    -0.000597254
    -0.001159864
    -0.000463099
    -0.001223616
    -0.000006581
     0.000009378
     0.000010106
    -0.000976469
    -0.000044217
     0.000001133
    -0.000287484
    -0.000582502
    -0.000998091
    -0.000056559
    -0.001396136
    -0.000000057
    -0.000929928
    -0.000939539
    -0.000937895
    -0.001312329
    -0.000000288
     0.000067760
    -0.000159874
     0.000005239
     0.000014906
    -0.001001445
     0.000039019
    -0.001162176
    -0.000001423
    -0.000820617
    -0.001230565
    -0.000895563
    -0.000024635
    -0.000014489
    -0.001214566
    -0.000792255
    -0.000506503
    -0.000064220
    -0.000237145
    -0.001119108
    -0.000000005
     0.000009286
    -0.000856658
    -0.001010911
    -0.001243846
    -0.001136680
    -0.000225510
     0.000008575
    -0.000777965
     0.000010258
     0.000062429
    -0.000016086
    -0.001365879
    -0.000006361
    -0.000963314
    -0.000596950
    -0.001183508
     0.000025326
     0.000003155
    -0.001065603
    -0.000722495
    -0.001062465
    -0.000067964
    -0.000000003
    -0.000107886
    -0.000856855
    -0.000000048
     0.000002765
    -0.001055159
    -0.000012670
    -0.001311825
     0.000005316
    -0.000046097
    -0.000594981
    -0.001050049
    -0.001090708
    -0.001131752
    -0.001128851
    -0.001501259
     0.000019862
    -0.000013717
    -0.001062150
    -0.000238373
    -0.000182225
    -0.000000058
    -0.001109893
    -0.000065781
    -0.000000002
    -0.000000038
    -0.001120672
    -0.001102588
    -0.000033975
    -0.001414090
     0.000000095
     0.000036962
     0.000016256
     0.000000007
     0.000095375
    -0.000000273
    -0.001202464
    -0.000393325
    -0.000001564
    -0.000782866
    -0.000000023
    -0.001204250
    -0.001122301
     0.000015081
    -0.001287937
     0.000000008
    -0.000018175
    -0.001276251
     0.000425621
    -0.000053674
    -0.000018515
    -0.000676957
    -0.000755846
    -0.000177192
    -0.001020598
    -0.001439622
    -0.000984965
     0.000018691
    -0.001429792
     0.000004859
    -0.000684470
    -0.000620522
     0.000045800
    -0.000781609
    -0.000033041
    -0.001189997
    -0.000012880
    -0.000104255
    -0.000023258
    -0.001225977
    -0.001179635
     0.000223568
    -0.001429894
     0.000000013
    -0.000000154
    -0.000405714
    -0.000000192
    -0.000000282
    -0.000488748
    -0.000186123
    -0.000007678
    -0.000325811
    -0.000993576
    -0.000019192
    -0.000368570
    -0.000000063
     0.000000001
     0.000000010
     0.000000004
    -0.000000038
    -0.001461495
    -0.001783079
    -0.000000150
    -0.001332237
    -0.000043913
     0.000000004
    -0.000783788
    -0.000894256
     0.000015913
    -0.000845247
    -0.000000039
    -0.000000053
    -0.001211247
     0.000000396
    -0.000000114
    -0.000841804
     0.000000001
    -0.000000004
     0.000060015
     0.000005779
    -0.000460806
    -0.000723243
    -0.001247915
    -0.000959440
    -0.000724762
     0.000098563
    -0.000000128
    -0.001351139
     0.000003949
    -0.000945042
    -0.000713390
    -0.000229509
    -0.000832454
    -0.000420390
     0.000000010
    -0.000129148
    -0.003051967
    -0.000214226
    -0.000000661
    -0.001098382
    -0.000024222
    -0.000973981
     0.000000012
    -0.000046323
     0.000114491
    -0.000189064
    -0.000707576
    -0.000445246
     0.000014425
    -0.001542019
    -0.001154996
    -0.000420446
    -0.001157795
    -0.000016125
    -0.000799166
    -0.000293544
    -0.000542033
    -0.000495247
    -0.000086432
     0.000000001
     0.000000042
    -0.000000264
    -0.000523947
    -0.000853553
    -0.000375820
    -0.000990980
    -0.000137283
    -0.001240361
     0.000000392
    -0.000228194
    -0.000105911
     0.000040945
     0.000070406
     0.000096668
    -0.000407080
    -0.000000004
    -0.001227710
    -0.000050665
    -0.000000023
    -0.000730273
     0.000036704
     0.000014989
     0.000000479
    -0.000127219
    -0.001574836
    -0.000317651
    -0.000245289
    -0.001347713
     0.000000006
     0.000001140
     0.000030458
    -0.000000001
    -0.001160644
    -0.000665516
    -0.001024852
    -0.000045141
     0.000253706
    -0.000379559
    -0.000806308
    -0.000318440
    -0.000758294
    -0.000000000
    -0.001057567
    -0.001013032
     0.000000000
    -0.001166286
    -0.000444366
    -0.000131449
    -0.000000034
    -0.000902397
    -0.000926027
    -0.001185130
    -0.000273193
     0.000000008
    -0.000688655
    -0.000060765
    -0.001105310
    -0.000000001
    -0.000780181
    -0.000174695
     0.000008127
    -0.000185447
    -0.000765071
    -0.000789331
    -0.000540747
    -0.000676858
    -0.001426108
    -0.001084920
     0.000184474
    -0.001040645
    -0.001518862
    -0.000494427
    -0.000557919
    -0.001109943
    -0.000001053
     0.000016342
    -0.000651862
    -0.000899255
    -0.001115056
    -0.000432954
     0.000032312
    -0.000687336
    -0.000830908
    -0.001175509
    -0.000000485
     0.000068658
    -0.000785217
     0.000194669
    -0.001000616
    -0.001475795
    -0.000908128
    -0.000763055
    -0.001060298
    -0.000682816
    -0.000173508
    -0.000001391
    -0.000602677
    -0.000000029
    -0.000165484
     0.000000065
     0.000004562
     0.000033809
    -0.000368749
    -0.000285187
    -0.000000001
    -0.000546948
    -0.000698799
    -0.000004392
    -0.001259771
    -0.000000001
    -0.001270974
     0.000048569
     0.000000000
     0.000009695
    -0.000120850
     0.000002364
    -0.000601019
    -0.000373393
    -0.000028222
    -0.001037779
     0.000002946
    -0.001153276
     0.000000001
    -0.000626871
    -0.001133307
     0.000074633
    -0.000002834
    -0.000772861
    -0.000000041
     0.000054590
     0.000000004
    -0.000855578
    -0.000965947
    -0.001280321
    -0.000399299
     0.000023115
     0.000122243
    -0.000012252
    -0.000787578
    -0.000000006
    -0.001268105
     0.000113076
    -0.000912047
     0.000000007
    -0.000000265
    -0.000694806
    -0.000022815
     0.000001960
     0.000006143
    -0.000373458
    -0.000987558
     0.000295106
    -0.001144133
     0.000000032
    -0.000786322
     0.000007285
    -0.000059885
     0.000037289
    -0.001193326
    -0.001022476
    -0.000497127
    -0.000178236
     0.000224373
    -0.000132224
    -0.000777620
    -0.001153148
     0.000007379
     0.000006764
    -0.001484079
    -0.001117388
    -0.000024410
    -0.000626019
    -0.000290598
    -0.000877206
    -0.000758228
    -0.000060323
     0.000000579
    -0.001109706
     0.000111276
    -0.000828605
    -0.001310798
     0.000030894
    -0.000002835
    -0.001062424
    -0.000246147
    -0.000938993
     0.000000085
    -0.000658485
    -0.001012801
    -0.000008081
    -0.001009863
    -0.001312814
    -0.000006620
    -0.001081794
     0.000001127
     0.000142290
     0.000174682
    -0.000124254
     0.000004298
     0.000000001
    -0.000000003
    -0.001016251
    -0.000896500
    -0.000544518
     0.000017358
    -0.000662338
     0.000000809
    -0.000111538
    -0.001341122
    -0.000042423
    -0.001030616
     0.000000044
     0.000000003
     0.000000052
    -0.000987958
     0.000094357
    -0.000280524
    -0.001065181
    -0.000285933
    -0.000106137
     0.000051136
    -0.000259235
    -0.001121976
    -0.000167390
     0.000001149
     0.000007680
    -0.000867650
    -0.001019508
    -0.000084990
    -0.000000041
    -0.000013836
     0.000001038
    -0.000345759
    -0.000312132
    -0.001239101
    -0.000743319
    -0.000705305
    -0.000850559
     0.000000001
     0.000000037
     0.000125002
     0.000000069
     0.000006397
    -0.000276284
    -0.001299661
     0.000001523
     0.000063051
     0.000135813
    -0.000326805
    -0.000625305
    -0.000637335
    -0.000736217
    -0.000898624
    -0.000147949
    -0.000000102
    -0.000202103
    -0.000176704
    -0.000516127
    -0.000830794
    -0.000606773
    -0.000000924
     0.000004502
     0.000001754
    -0.000181970
    -0.000270341
    -0.001214153
    -0.000212607
    -0.000117161
    -0.000257625
     0.000000019
     0.000027333
     0.000069043
    -0.001190732
    -0.001111052
    -0.000938494
    -0.000067596
    -0.000011601
    -0.000003537
    -0.000001292
     0.000002338
     0.000042226
    -0.000734878
    -0.000768384
    -0.000712416
    -0.000728646
    -0.000982432
    -0.001189003
    -0.000033374
    -0.000000213
    -0.000261924
    -0.000006192
    -0.000002871
    -0.000201109
    -0.001091552
    -0.001250893
    -0.000879565
    -0.000939130
     0.000000112
     0.000144815
    -0.000512669
     0.000017169
     0.000124564
     0.000172894
    -0.000581185
    -0.000059111
    -0.001208744
    -0.001158861
    -0.001192463
    -0.000000058
    -0.000891249
    -0.000887204
     0.000002346
    -0.000810949
    -0.000897216
    -0.001114443
    -0.000398408
    -0.001031095
    -0.000000030
    -0.000481898
    -0.000316922
    -0.001263635
    -0.000958657
    -0.000236933
    -0.000712894
     0.000000007
     0.000115261
    -0.000644221
    -0.001364173
     0.000002099
    -0.000000191
    -0.001189914
    -0.000771010
    -0.001134286
    -0.000001324
    -0.001085278
    -0.000886506
    -0.000938032
    -0.000145082
    -0.000002195
    -0.000824161
    -0.000885160
    -0.001020101
    -0.001102068
    -0.000000527
    -0.000378579
    -0.000217924
     0.000000074
     0.000142961
     0.000047903
    -0.000714579
     0.000012617
    -0.000263277
     0.000000374
    -0.000441406
    -0.000874299
    -0.001287049
    -0.000153687
     0.000000431
     0.000003441
    -0.000605254
    -0.001304814
    -0.000010030
    -0.000440757
    -0.001052045
    -0.001087872
    -0.000000009
    -0.000505678
    -0.000380656
    -0.000831777
    -0.000845552
    -0.000575627
    -0.000189910
    -0.001033357
    -0.001063580
    -0.000931921
    -0.001371291
    -0.001216930
    -0.000145207
    -0.000001705
     0.000003998
    -0.000776638
    -0.001085531
    -0.000664863
    -0.000858875
     0.000001493
     0.000070281
     0.000009300
     0.000000550
    -0.000000000
    -0.000042927
    -0.000556745
    -0.001047713
    -0.000085459
    -0.000000001
    -0.000932215
     0.000019238
    -0.001038240
    -0.001218449
     0.000003895
    -0.001022236
    -0.000502564
    -0.000221131
     0.000002138
    -0.000579907
     0.000017060
    -0.000000025
    -0.001521566
    -0.000229676
    -0.001486453
    -0.000001609
    -0.000147665
     0.000014222
    -0.001034026
    -0.000094722
    -0.001702439
    -0.001146630
    -0.000828238
    -0.001218191
    -0.000044959
    -0.000309044
    -0.000898053
     0.000041981
    -0.001199490
    -0.001298754
    -0.000003909
    -0.001133987
    -0.001488292
    -0.000393858
    -0.000000024
     0.000000023
    -0.000654763
    -0.000269904
    -0.000102128
     0.000000313
    -0.000645547
    -0.000651318
     0.000000000
    -0.000002127
    -0.000000000
    -0.000395353
     0.000077670
    -0.000290405
     0.000024477
    -0.000001927
    -0.000281369
    -0.000000001
    -0.000021639
     0.000017979
     0.000000000
    -0.000195443
     0.000028840
     0.000000316
    -0.000564515
    -0.000000001
    -0.000808443
     0.000039978
    -0.000702061
     0.000000002
    -0.000039978
    -0.001033085
    -0.000165075
    -0.000000002
    -0.000000000
     0.000045104
    -0.000800433
     0.000023657
    -0.000135275
    -0.000002003
     0.000000000
    -0.000709056
    -0.000055221
    -0.001228446
    -0.001235697
    -0.001017070
    -0.001171126
    -0.000358240
    -0.001255185
    -0.000340935
     0.000000630
    -0.000000001
     0.000012237
    -0.000427020
     0.000000001
    -0.000131509
    -0.000784476
     0.000000023
    -0.000432206
    -0.000087425
    -0.000407211
    -0.000016413
    -0.000953432
    -0.000000350
    -0.000000081
    -0.000000073
    -0.000486125
    -0.000800881
    -0.001224105
     0.000167639
    -0.001109595
    -0.000936756
    -0.001285886
     0.000054149
    -0.001183098
    -0.000108342
     0.000095800
    -0.001347894
    -0.001147240
    -0.000000221
    -0.000970061
    -0.000555789
     0.000000000
    -0.000495571
    -0.001159877
    -0.001316200
    -0.000429007
    -0.000774330
     0.000000080
    -0.000640491
     0.000018070
    -0.001332027
    -0.000985978
    -0.001353791
    -0.000224046
     0.000005420
     0.000000003
    -0.001052371
    -0.000638413
    -0.001253885
    -0.001240671
    -0.000137668
    -0.000004706
    -0.000160197
    -0.000802947
    -0.000976823
    -0.000374840
    -0.000303430
     0.000000715
    -0.001533256
    -0.001184947
    -0.000000027
    -0.000159518
    -0.000725082
     0.000016256
    -0.000830887
    -0.000840375
    -0.001058421
    -0.001089475
    -0.000000372
     0.000000001
     0.000000000
    -0.000000000
    -0.000955301
    -0.000739555
    -0.000906905
    -0.001432980
     0.000000066
    -0.000047714
     0.000000376
     0.000013890
    -0.001065394
     0.000009628
    -0.000683163
     0.000013481
    -0.001037176
     0.000000137
    -0.000060729
     0.000008181
    -0.000417635
    -0.000639530
    -0.001049326
     0.000000166
    -0.000109828
    -0.000353725
    -0.000954103
    -0.000028420
    -0.000985620
    -0.000000334
    -0.000566748
     0.000000006
    -0.001428675
     0.000062094
    -0.001158053
    -0.000378720
    -0.001045041
    -0.001013608
     0.000122993
    -0.001059867
    -0.001051040
    -0.000335591
    -0.000978411
     0.000117637
     0.000007362
    -0.001032111
     0.000105541
    -0.000744647
     0.000242104
     0.000000016
    -0.000882602
    -0.000235843
    -0.001077040
     0.000000543
    -0.000262505
    -0.000238546
    -0.001071008
    -0.001309665
    -0.000228422
    -0.000367698
    -0.000001586
    -0.001280002
     0.000000000
    -0.000282274
    -0.000471300
     0.000000001
     0.000001592
     0.000094843
    -0.000087244
     0.000123755
     0.000036915
     0.000013752
     0.000000001
     0.000116437
    -0.000502816
    -0.000867786
     0.000000352
     0.000000004
    -0.000108070
     0.000030889
    -0.000580387
    -0.000000005
    -0.000025815
    -0.000001741
    -0.001069239
    -0.000622688
    -0.000789509
    -0.000295037
    -0.000948627
    -0.000781222
    -0.000107545
    -0.001234478
    -0.001250635
    -0.000819417
    -0.000966334
    -0.000478031
    -0.000892467
     0.000062572
    -0.000605948
     0.000000349
    -0.000028936
    -0.000002795
     0.000009075
    -0.000000125
     0.000000105
     0.000000141
    -0.000777980
     0.000014986
    -0.000430027
    -0.001275228
    -0.000000001
    -0.000577209
    -0.000012954
    -0.001265229
     0.000242336
    -0.000565891
    -0.001133989
    -0.000277073
    -0.000423808
    -0.000136168
    -0.001099911
    -0.000914576
    -0.000892954
    -0.001108535
     0.000028025
    -0.000589489
    -0.001069142
    -0.000032617
    -0.000622492
     0.000000018
     0.000031873
    -0.000701217
    -0.001062431
    -0.000896039
    -0.000123605
    -0.001156143
    -0.000153142
    -0.000955113
    -0.000022541
    -0.001366706
    -0.001391783
    -0.000350778
     0.000004240
    -0.000199934
    -0.000723081
    -0.000109030
    -0.001178481
     0.000088525
    -0.000991413
    -0.000283152
    -0.000936145
     0.000041466
     0.000183906
     0.000003434
     0.000141263
    -0.000957668
    -0.001066384
     0.000010955
    -0.000686062
    -0.000892264
     0.000104515
     0.000000025
     0.000169316
    -0.000001722
     0.000001671
    -0.000930937
     0.000006450
    -0.000695839
     0.000079518
    -0.000601924
    -0.000043051
    -0.000297977
    -0.000000243
    -0.000014766
    -0.000000051
    -0.000625344
    -0.000000004
    -0.000003754
    -0.000445982
    -0.000304747
    -0.000095273
    -0.000468047
     0.000045978
     0.000000928
    -0.000060963
    -0.001069165
     0.000133826
     0.000103059
     0.000034916
     0.000013228
    -0.000000906
    -0.000369912
    -0.000910176
    -0.000854109
    -0.001006311
    -0.000653785
    -0.000105592
    -0.001124409
     0.000053900
    -0.000230107
     0.000054472
     0.000000025
    -0.000030357
     0.000001266
    -0.001044067
    -0.000299832
     0.000000003
     0.000000152
     0.000000010
    -0.000620392
    -0.000513442
     0.000115438
     0.000149845
    -0.000685295
    -0.000129632
    -0.000000008
    -0.000091061
    -0.000538061
    -0.000676736
     0.000006700
     0.000005077
    -0.000001384
    -0.000843836
    -0.000566780
    -0.000478452
    -0.000714261
    -0.000082669
    -0.000023574
    -0.001118316
     0.000075538
    -0.000101580
     0.000000663
    -0.001200458
     0.000088118
     0.000000244
     0.000000022
    -0.000406265
    -0.000771780
    -0.000876813
    -0.000822250
    -0.000747479
    -0.000707649
    -0.000030086
    -0.000698630
    -0.001025946
    -0.000880143
    -0.000091104
    -0.000341494
    -0.000017559
    -0.000392642
    -0.000960577
    -0.000897117
    -0.000979286
    -0.000844005
    -0.000001346
    -0.000755010
    -0.001268433
     0.000016756
    -0.000440248
     0.000000342
    -0.000363068
     0.000015230
    -0.000829088
     0.000148725
    -0.001053074
     0.000019544
    -0.000324966
     0.000184474
    -0.001009718
    -0.000833536
    -0.000000009
    -0.001054485
    -0.001102533
    -0.001035510
    -0.000819903
     0.000000022
    -0.000399465
    -0.001200641
    -0.001085364
    -0.000005438
    -0.000923945
    -0.000949848
    -0.000000459
    -0.000509062
    -0.000506279
    -0.000925378
    -0.000193026
     0.000183971
     0.000000005
    -0.001148374
    -0.000516039
     0.000187873
     0.000001685
    -0.000616505
    -0.001153016
    -0.001127383
    -0.000000018
    -0.001002288
    -0.001072451
    -0.000787992
    -0.000000024
    -0.000021634
    -0.000573469
    -0.000810035
    -0.000497437
     0.000031283
    -0.000001435
    -0.000989724
    -0.001007330
    -0.000675345
     0.000042637
     0.000020935
     0.000000062
     0.000029181
    -0.000559661
     0.000010251
    -0.000401020
    -0.001107581
    -0.000688612
    -0.000399303
    -0.000759176
     0.000038870
    -0.001306786
    -0.000679950
     0.000000000
     0.000002600
     0.000366855
     0.000091808
    -0.000000004
    -0.000000354
    -0.001043142
    -0.001041474
    -0.001115949
    -0.001016463
    -0.000006498
    -0.000064773
    -0.000591006
    -0.000778349
    -0.000726012
    -0.001239015
    -0.001058567
    -0.000807991
    -0.000969780
    -0.000620443
    -0.001407262
    -0.000830721
     0.000000002
     0.000014726
     0.000039971
     0.000000050
     0.000000110
     0.000047776
    -0.000178425
    -0.000047811
    -0.000849060
    -0.000000645
    -0.001810310
    -0.001393592
    -0.002083595
    -0.001835354
    -0.001742905
    -0.001729756
    -0.001760831
    -0.000000007
    -0.000013249
    -0.000644510
    -0.001667319
    -0.000000619
    -0.000041352
    -0.001033769
    -0.001841155
    -0.000131518
    -0.000031406
    -0.000005244
    -0.002228017
    -0.000121106
    -0.002168225
    -0.000949078
    -0.002126610
    -0.000173284
    -0.001244612
    -0.002186408
    -0.002110173
    -0.001128603
    -0.002136647
    -0.002142273
    -0.002078275
    -0.000000071
    -0.000029595
    -0.001247422
    -0.002070273
    -0.000000245
    -0.001769515
    -0.000006889
    -0.002059090
    -0.000000425
    -0.001244155
    -0.000006478
    -0.001474923
    -0.002145200
    -0.002087746
    -0.000000424
    -0.002141010
    -0.002191501
    -0.002065353
    -0.000001335
    -0.002160359
    -0.000811190
    -0.000875669
    -0.002145926
    -0.000053398
    -0.002163177
    -0.000027528
    -0.000057815
    -0.000000079
    -0.000019782
    -0.000000001
    -0.001800569
    -0.001819335
    -0.001799169
    -0.001830745
    -0.000130137
    -0.001785054
    -0.000110648
    -0.001777769
    -0.002169624
    -0.000134503
    -0.002163445
    -0.000113509
    -0.000004145
    -0.001870724
    -0.000001664
    -0.001738560
    -0.002267293
    -0.001940670
    -0.002309752
    -0.001674239
    -0.001991099
    -0.000007785
    -0.001836907
    -0.000001444
    -0.002105997
    -0.002040085
    -0.002100830
    -0.001923783
    -0.000000050
    -0.002100073
    -0.000000023
    -0.002106335
    -0.002157472
    -0.001982927
    -0.000000002
    -0.002055316
    -0.000000003
    -0.000056290
    -0.000022917
    -0.001053449
    -0.000904237
    -0.001129215
    -0.000687292
    -0.002162335
    -0.002195286
    -0.000146195
    -0.000019571
    -0.000791632
    -0.001945442
    -0.001281643
    -0.001750580
    -0.000001606
    -0.001648573
    -0.001615910
    -0.001612737
    -0.001677345
    -0.001450491
    -0.000498523
    -0.000006045
    -0.000000002
    -0.001674383
    -0.000941143
    -0.000029863
    -0.000000489
    -0.002091502
    -0.000003120
    -0.000038605
    -0.000084165
    -0.001976231
    -0.000938524
    -0.001983193
    -0.000146296
    -0.001983156
    -0.002066351
    -0.001315318
    -0.000244516
    -0.001946364
    -0.002005012
    -0.001942321
    -0.001253184
    -0.001956723
    -0.001074028
    -0.000046049
    -0.000000023
    -0.001916408
    -0.000006055
    -0.001671591
    -0.000000103
    -0.000933844
    -0.000000086
    -0.001211743
    -0.000006880
    -0.001941596
    -0.002021548
    -0.001967633
    -0.000000602
    -0.001941902
    -0.002032160
    -0.002044658
    -0.000003986
    -0.000492915
    -0.000785745
    -0.000085728
    -0.001932802
    -0.000101559
    -0.001929793
    -0.000000022
    -0.000027161
    -0.000000062
    -0.000027887
    -0.001595133
    -0.001621307
    -0.001589331
    -0.001617634
    -0.001621626
    -0.000029530
    -0.001616100
    -0.000028288
    -0.000268747
    -0.001950988
    -0.000279870
    -0.001951192
    -0.001476734
    -0.000000525
    -0.001454855
    -0.000000187
    -0.001757515
    -0.002014453
    -0.001780981
    -0.002000931
    -0.000007942
    -0.001673635
    -0.000011759
    -0.001665055
    -0.001885871
    -0.001889811
    -0.001893573
    -0.001884579
    -0.000000001
    -0.001908589
    -0.000000002
    -0.000000003
    -0.001908022
    -0.000000001
    -0.001945863
    -0.001945997
    -0.000000062
    -0.001866526
    -0.000017537
    -0.000014312
    -0.000558563
    -0.000536282
    -0.000921136
    -0.000963596
    -0.001912526
    -0.001897796
    -0.000634679
    -0.000000000
    -0.000835751
    -0.002174499
    -0.000006383
    -0.002037308
    -0.000233248
    -0.001714294
    -0.001756608
    -0.001729531
    -0.001713508
    -0.000000009
    -0.000000221
    -0.000533559
    -0.000010851
    -0.000041579
    -0.000148743
    -0.001744593
    -0.001787948
    -0.000000001
    -0.000037870
    -0.000852478
    -0.002131269
    -0.002084611
    -0.000090509
    -0.002099137
    -0.000205975
    -0.002221205
    -0.000778001
    -0.002080354
    -0.002039295
    -0.002009112
    -0.001513871
    -0.002032031
    -0.002049835
    -0.000769161
    -0.000000046
    -0.002112368
    -0.000110828
    -0.000000244
    -0.002079668
    -0.002008327
    -0.000000003
    -0.000000180
    -0.000374520
    -0.000305237
    -0.001342682
    -0.002071863
    -0.001959386
    -0.000000001
    -0.002009554
    -0.000000007
    -0.002138529
    -0.002024305
    -0.000151286
    -0.001849123
    -0.000904619
    -0.000807302
    -0.000000003
    -0.002001852
    -0.002061695
    -0.000002390
    -0.000000002
    -0.001654559
    -0.001651609
    -0.001768148
    -0.001702831
    -0.001341118
    -0.001045779
    -0.001672749
    -0.001709401
    -0.000000053
    -0.000431730
    -0.000000459
    -0.000000543
    -0.000385693
    -0.000014888
    -0.002162900
    -0.001685002
    -0.002086871
    -0.001970342
    -0.001375644
    -0.000189265
    -0.002073840
    -0.002051447
    -0.000000819
    -0.000000072
    -0.001969369
    -0.001955881
    -0.000876994
    -0.000280540
    -0.000122300
    -0.000009516
    -0.001958446
    -0.001989009
    -0.000000040
    -0.002110080
    -0.001167761
    -0.000002651
    -0.002110247
    -0.001564887
    -0.000713484
    -0.000013959
    -0.002037519
    -0.002018990
    -0.001304750
    -0.000067302
    -0.002011030
    -0.000429606
    -0.000017806
    -0.001994168
    -0.000512749
    -0.000766738
    -0.001855744
    -0.000112289
    -0.001897733
    -0.000053645
    -0.000076506
    -0.000000284
    -0.000008607
    -0.000000005
    -0.001584000
    -0.001555303
    -0.001576429
    -0.001559093
    -0.001572867
    -0.000044920
    -0.001545565
    -0.000027588
    -0.001902805
    -0.000246631
    -0.001897474
    -0.000216516
    -0.001592338
    -0.000002258
    -0.001245639
    -0.000000029
    -0.001922305
    -0.001780275
    -0.001985852
    -0.001557162
    -0.001735958
    -0.000020024
    -0.001433236
    -0.000003096
    -0.001846224
    -0.001848746
    -0.001833473
    -0.001800510
    -0.001832465
    -0.000000001
    -0.000000008
    -0.001849635
    -0.000000001
    -0.001898733
    -0.001883516
    -0.001809339
    -0.000000036
    -0.000053859
    -0.000004359
    -0.000735884
    -0.000419580
    -0.001227502
    -0.000563621
    -0.001852633
    -0.001873893
    -0.000222425
    -0.000851456
    -0.000000973
    -0.002233740
    -0.000004761
    -0.002107281
    -0.001011815
    -0.001208556
    -0.000238241
    -0.000000730
    -0.001751628
    -0.001755976
    -0.001775819
    -0.001719231
    -0.001355112
    -0.000001471
    -0.001893217
    -0.000035875
    -0.002172103
    -0.000044945
    -0.002166123
    -0.000089189
    -0.000132523
    -0.002294045
    -0.000000264
    -0.000049347
    -0.001929140
    -0.000518472
    -0.002123082
    -0.002225050
    -0.000180857
    -0.000000003
    -0.002152774
    -0.000765682
    -0.000000002
    -0.002099708
    -0.001509009
    -0.002096918
    -0.002094308
    -0.002136408
    -0.002121628
    -0.000000089
    -0.000000052
    -0.002122946
    -0.001937696
    -0.002168560
    -0.000630076
    -0.000000007
    -0.000025491
    -0.001178890
    -0.000030161
    -0.002176455
    -0.002197488
    -0.002070623
    -0.000663545
    -0.000841725
    -0.000000000
    -0.000241222
    -0.002062734
    -0.000003595
    -0.002186488
    -0.000000006
    -0.000011723
    -0.000530170
    -0.000000264
    -0.001726707
    -0.001740447
    -0.001774795
    -0.001726312
    -0.000155352
    -0.001801992
    -0.000049336
    -0.001769352
    -0.000198601
    -0.002119516
    -0.000075438
    -0.002094889
    -0.000032900
    -0.002139596
    -0.000000027
    -0.000943908
    -0.002062131
    -0.002096830
    -0.000724375
    -0.002232000
    -0.000120248
    -0.002129441
    -0.000000004
    -0.000815878
    -0.002068182
    -0.002048403
    -0.001452278
    -0.002019685
    -0.000000162
    -0.000000007
    -0.002035359
    -0.000000001
    -0.002096837
    -0.001940955
    -0.002085606
    -0.000000001
    -0.000000005
    -0.002026047
    -0.000357706
    -0.000000515
    -0.001343213
    -0.000360867
    -0.001869058
    -0.000145533
    -0.002035335
    -0.002155213
    -0.000806440
    -0.000000003
    -0.002013135
    -0.000946833
    -0.001967319
    -0.001598946
    -0.000001118
    -0.000000029
    -0.000064714
    -0.000013827
    -0.000203274
    -0.000000001
    -0.000301229
    -0.000000004
    -0.001638844
    -0.001617770
    -0.001645120
    -0.001618754
    -0.001967406
    -0.001822811
    -0.001951058
    -0.001950260
    -0.002060377
    -0.002006988
    -0.001966247
    -0.002022170
    -0.000125809
    -0.000000010
    -0.000507190
    -0.000003649
    -0.000681781
    -0.000087427
    -0.001564347
    -0.000543348
    -0.001540748
    -0.000035205
    -0.001770614
    -0.000127765
    -0.001887926
    -0.001969661
    -0.001893561
    -0.001894588
    -0.001972723
    -0.000291525
    -0.001932699
    -0.001923814
    -0.000776413
    -0.001687543
    -0.001918673
    -0.001907648
    -0.000000008
    -0.000000868
    -0.000000001
    -0.000000775
    -0.000006520
    -0.000754506
    -0.000070139
    -0.000769156
    -0.000529219
    -0.001923341
    -0.000000001
    -0.001782512
    -0.000000009
    -0.001612593
    -0.001596463
    -0.001641509
    -0.001581721
    -0.000497842
    -0.001619217
    -0.000000027
    -0.000054412
    -0.001602754
    -0.001575081
    -0.000565961
    -0.000061288
    -0.000000022
    -0.001938990
    -0.000109222
    -0.000754248
    -0.000131073
    -0.001960135
    -0.000002533
    -0.001916399
    -0.002029878
    -0.001937689
    -0.000027946
    -0.000915640
    -0.001887971
    -0.001908732
    -0.000278728
    -0.001910072
    -0.000719163
    -0.001851479
    -0.000037231
    -0.000004141
    -0.000000014
    -0.001844750
    -0.001871283
    -0.000036156
    -0.000000006
    -0.001721282
    -0.001899226
    -0.000086710
    -0.001211538
    -0.001900864
    -0.001856726
    -0.000000048
    -0.001884584
    -0.001660104
    -0.001970301
    -0.000000233
    -0.000964593
    -0.000818378
    -0.000000354
    -0.000033241
    -0.002077919
    -0.002009595
    -0.001818774
    -0.001758802
    -0.001675759
    -0.001686669
    -0.001730491
    -0.001706471
    -0.000366032
    -0.000674439
    -0.000001447
    -0.000000668
    -0.000393443
    -0.000000002
    -0.001510968
    -0.002151231
    -0.000001474
    -0.000128717
    -0.000450316
    -0.001854302
    -0.002142922
    -0.002070439
    -0.000006683
    -0.000028819
    -0.002052239
    -0.002074827
    -0.000865529
    -0.001657814
    -0.001966557
    -0.001992467
    -0.002020115
    -0.001965423
    -0.000000239
    -0.000008398
    -0.000000002
    -0.000016024
    -0.001168714
    -0.002085704
    -0.001063669
    -0.001780373
    -0.000004898
    -0.000460107
    -0.002140587
    -0.002017746
    -0.000144524
    -0.001559449
    -0.001221254
    -0.002032944
    -0.001979227
    -0.000000322
    -0.000137507
    -0.000044119
     0.000499738
     0.000559177
     0.000086807
     0.000000292
    -0.000777937
     0.001164747
     0.000001039
     0.001165820
     0.000150009
    -0.000164375
    -0.000000004
     0.000005979
    -0.000892724
     0.000978861
    -0.001689263
     0.001121815
     0.000044793
     0.000864557
     0.000000217
    -0.000000013
    -0.000300877
    -0.001151642
     0.000003119
    -0.000000073
     0.000039711
     0.000000006
     0.000333181
     0.000957095
    -0.001575238
     0.000364833
     0.000652577
    -0.000767047
    -0.000243108
     0.000000104
    -0.001354044
     0.000000399
     0.000903910
     0.000184138
    -0.000796838
     0.000165552
     0.000000000
    -0.000003976
     0.000182228
     0.000083183
    -0.001315667
     0.000979250
     0.000000149
     0.000729514
    -0.000000164
    -0.000342271
    -0.000000094
     0.000922048
     0.000487717
     0.000184364
     0.000883546
     0.000399748
     0.000677777
     0.000150083
     0.000023489
    -0.000294269
    -0.000530508
     0.000387634
     0.000303937
    -0.000017372
     0.000378997
    -0.000819248
    -0.000614323
     0.000802252
     0.000086650
     0.000000001
     0.000509161
    -0.000663804
     0.000000806
     0.000007460
     0.000000003
    -0.000000028
    -0.000156959
    -0.001267997
     0.001071363
     0.000823076
     0.000490085
     0.000450316
    -0.001106260
    -0.001112998
     0.000003188
     0.001300362
     0.000004165
     0.000061728
    -0.000000000
    -0.000000549
    -0.001249599
     0.000346032
    -0.000880209
     0.001189720
    -0.001428935
    -0.001373741
     0.000745707
    -0.000237728
     0.000076687
    -0.000476710
    -0.000681968
     0.000110304
     0.000000132
     0.000339495
     0.000992025
     0.001197757
     0.000970387
    -0.001470180
     0.000415823
     0.000960723
    -0.000017544
    -0.000796890
     0.000653601
    -0.000079654
     0.000360673
    -0.000000000
    -0.000000004
     0.000556377
    -0.000028725
    -0.000496411
     0.001433930
    -0.001745582
    -0.000277764
    -0.001055322
     0.000994044
    -0.001495425
    -0.000081461
    -0.000255235
    -0.001081607
     0.001099923
    -0.001458228
     0.000000040
    -0.000340691
    -0.000601910
     0.000000039
    -0.000352882
     0.000235299
    -0.000026007
     0.000041922
    -0.001186444
    -0.000100500
     0.000011659
     0.000463669
     0.000022797
    -0.000501237
     0.000007873
     0.000004005
     0.000038402
    -0.000032602
     0.000943199
     0.000219735
    -0.000071843
     0.001360696
     0.000002671
     0.000620031
    -0.000000017
     0.000126324
    -0.000447106
     0.000014099
     0.000928702
     0.000000007
    -0.000135792
    -0.000080855
    -0.001224984
     0.000005244
     0.000000106
     0.000000033
     0.000477265
     0.000298018
    -0.000404899
     0.000101806
     0.001172195
     0.000321379
    -0.000013932
     0.000283894
    -0.000820893
     0.000473638
    -0.000270445
     0.000257769
     0.000000047
    -0.001744467
    -0.001171743
    -0.001703567
    -0.002023763
    -0.000010554
     0.001266498
     0.000000152
    -0.000415672
     0.000887650
     0.000998735
     0.000821225
     0.002153753
    -0.000000135
     0.001745192
     0.001729151
     0.000145507
     0.001631552
     0.001915021
     0.001515872
     0.001789836
     0.000001455
     0.001947228
     0.001713668
     0.001697419
     0.000003217
     0.001728408
     0.001625304
     0.002051206
     0.001970473
     0.002479447
     0.002018837
    -0.000000348
     0.000175967
     0.002559489
     0.001840061
     0.000045849
     0.001686261
     0.000697873
    -0.000000008
    -0.000000818
     0.002488412
     0.001329489
     0.001917086
     0.002303145
     0.001950741
     0.002097098
     0.001669050
     0.002401881
     0.002251825
    -0.000000002
     0.001954208
     0.001883745
     0.001102318
     0.002009662
     0.001743972
    -0.000000057
     0.000216420
     0.002327040
     0.000095607
     0.002375739
    -0.000000516
     0.002440226
     0.002107249
     0.001710948
     0.002502566
     0.001773986
    -0.000000000
     0.000975184
     0.002337447
     0.001940398
     0.000425428
     0.002197741
    -0.000000013
     0.000540648
     0.000004672
    -0.000000051
     0.000725714
     0.000313933
    -0.000000180
    -0.000000014
     0.000362895
     0.000032962
    -0.000027028
     0.000279374
     0.001421565
    -0.000002189
    -0.000000508
     0.000078764
     0.000028539
    -0.000000149
    -0.000000214
    -0.000000001
    -0.000028885
    -0.000000000
    -0.000001031
     0.000000257
    -0.000695092
     0.000950418
    -0.000036998
    -0.000065642
     0.000006100
     0.000878368
     0.000861053
    -0.000000004
    -0.000000947
     0.000061263
     0.001081517
     0.002089321
     0.001680152
     0.001944074
     0.001907584
     0.001670912
     0.001631496
     0.002093079
     0.001852345
     0.001723587
     0.001593503
    -0.000000008
    -0.000000027
    -0.000000236
     0.000422981
     0.000966099
     0.000003870
     0.001292985
    -0.000002749
    -0.000000000
     0.002452386
    -0.000013040
     0.002562458
     0.002737461
     0.002331034
     0.002056276
    -0.000000016
    -0.000000180
     0.000303471
     0.000671672
     0.001864643
     0.001773492
     0.002615174
     0.002620709
     0.001937798
     0.001817406
     0.001010242
     0.001304019
    -0.000000001
     0.001983306
     0.001634208
    -0.000000006
    -0.000000010
     0.000001593
     0.001063908
     0.002439611
     0.000254740
     0.002441628
     0.000963654
     0.001572434
    -0.000000037
     0.002258975
     0.002150064
     0.002357119
     0.002266398
     0.002664255
     0.001796912
     0.000854225
    -0.000000003
     0.001808042
