#
# Number of atoms
#
 64
#
# The current total energy in Eh
#
  -3244.576294281026
#
# The current gradient in Eh/bohr
#
       0.000011629108
       0.000011708286
       0.000100371078
       0.000103733774
      -0.000045295972
       0.000077431511
      -0.000054173485
       0.000012379133
      -0.000041566403
      -0.000092103285
       0.000035172820
       0.000046141269
       0.000118846997
       0.000182999559
      -0.000042838245
      -0.000039694016
      -0.000041503554
       0.000044894777
       0.000060264088
       0.000079984101
      -0.000029552680
      -0.000014699957
      -0.000078565930
       0.000055007223
      -0.000048223832
       0.000067177539
      -0.000078956940
       0.000078231348
      -0.000008763744
      -0.000049663695
      -0.000030226968
      -0.000071755987
       0.000026983212
       0.000064649340
      -0.000058871640
      -0.000024086448
      -0.000062605438
       0.000023498999
       0.000032560104
       0.000040732712
      -0.000011318390
      -0.000029316668
       0.000054923885
      -0.000053488988
      -0.000068516698
      -0.000005164666
      -0.000035778821
      -0.000086043456
      -0.000025294240
      -0.000007270164
      -0.000032731815
      -0.000018657937
      -0.000028084859
      -0.000016179899
       0.000013921563
       0.000056318413
       0.000020447704
      -0.000055877492
      -0.000014408987
      -0.000020978692
      -0.000004166230
      -0.000027344861
       0.000056818968
       0.000002308763
       0.000012466593
       0.000043718583
       0.000012513731
       0.000041065523
       0.000107717497
      -0.000005841769
      -0.000014487830
       0.000002297614
      -0.000001798547
       0.000013277541
      -0.000031080094
      -0.000034017974
       0.000008774088
      -0.000003956089
       0.000042376488
      -0.000072409635
       0.000034525972
      -0.000043191676
      -0.000041506834
       0.000070887259
      -0.000040893054
       0.000016783736
      -0.000004506297
       0.000014633829
      -0.000104601432
      -0.000060911000
      -0.000032432588
      -0.000015341750
       0.000000488170
      -0.000007633477
      -0.000009836775
      -0.000011325473
       0.000003683329
      -0.000016119596
       0.000006126546
       0.000001025782
      -0.000038026723
      -0.000019895233
      -0.000036585847
       0.000109490394
       0.000064410096
      -0.000030703111
      -0.000034002768
       0.000041472963
       0.000052602450
       0.000031258146
      -0.000024915407
      -0.000013269339
      -0.000000104472
       0.000008960878
      -0.000123247463
       0.000067748637
       0.000005830239
      -0.000039278779
       0.000091010685
       0.000063868032
       0.000058261971
      -0.000081427337
      -0.000090664829
      -0.000011903579
       0.000039049737
      -0.000015620402
      -0.000035046623
      -0.000039089188
      -0.000092649037
       0.000063239164
       0.000000108609
      -0.000053648397
       0.000033478352
       0.000016119137
       0.000005290083
      -0.000022478407
       0.000031623835
       0.000005557502
      -0.000009072606
       0.000004633358
       0.000005240543
       0.000055629537
       0.000055533025
      -0.000070233520
      -0.000007061541
       0.000010258529
       0.000010907084
       0.000016780402
      -0.000034449003
      -0.000018987162
       0.000069453050
      -0.000024778523
       0.000024099682
      -0.000003991513
       0.000003558912
       0.000006822401
      -0.000001951314
      -0.000005744911
       0.000019168096
       0.000001254934
       0.000002949553
      -0.000002904995
       0.000021424443
      -0.000000208918
      -0.000003828594
      -0.000018435918
      -0.000010023254
       0.000013934719
      -0.000009373931
       0.000016544736
       0.000026523098
       0.000009409419
      -0.000002152981
      -0.000002442441
      -0.000009277349
      -0.000008978881
       0.000008443783
      -0.000011809424
       0.000018244445
      -0.000010858048
      -0.000044933160
       0.000092145824
      -0.000001961259
      -0.000003072754
      -0.000030012050
      -0.000043502909
       0.000024122971
      -0.000034788299
       0.000041695864
       0.000019057830
      -0.000051340834
       0.000005680267
#
# The atomic numbers and current coordinates in Bohr
#
  40    -0.0907898    3.3025702    2.8735703 
  40    -0.0644784   -4.4045986   -2.6064857 
  40     2.7601559   -2.3712717    3.7241246 
  40    -2.8947183    2.1322590   -2.8199562 
  40     3.4507356    1.9715121   -2.3227357 
  40    -3.5779912   -2.0959290    3.2055922 
   8    -2.9557092    1.1025915    1.0030287 
   8     2.9697439    0.7827819    1.3964437 
   8    -0.3145610   -3.6144024    1.1477616 
   8     0.2431115    3.9270271   -1.2357887 
   8     0.1878553   -0.5921737   -3.0829465 
   8    -0.4074516   -0.3763769    4.8218381 
   8    -3.0168850    3.8481867    6.0186393 
   8    -2.6905068    6.6607375    1.9721251 
   8     2.4223800    3.6077998    6.3778033 
   8     2.6936696    6.5491584    2.4105210 
   8    -3.1091461   -7.0882457   -1.7573652 
   8    -2.6547618   -4.1453702   -5.8179050 
   8     2.4916562   -7.4379519   -1.3324914 
   8     2.9923114   -4.4883013   -5.3774364 
   8     1.3494834   -5.0308053    6.6777984 
   8     4.3485405   -0.1978770    6.8790157 
   8     4.2610168   -6.0604097    2.3104118 
   8    10.8160499    0.1221701    0.8947040 
   8    -6.8192037    0.6340173   -2.3340466 
   8    -4.7269078    5.6641602   -1.6814536 
   8    -3.9478169   -0.0919371   -6.3642408 
   8    -1.5495521    4.4506622   -6.1201421 
   8     2.7080264    4.0874818   -5.8896391 
   8     5.0956418    5.6166187   -1.0253439 
   8     4.9308391   -0.6651672   -5.3717942 
   8     7.4518860    1.0774522   -1.4989706 
   8    -7.3629551   -1.5308516    1.3283598 
   8    -5.4495301    0.3035095    6.0166296 
   8    -5.0233854   -5.9204681    1.8969217 
   8    -2.9121935   -4.6980758    6.4956347 
   6    -4.7473667    2.4544187    6.8747866 
   6    -4.1779445    7.1214900    0.1730951 
   6     3.7751200    2.0479599    7.5665278 
   6     4.3233867    7.0605152    0.7487869 
   6    -4.5680687   -7.4500571    0.1313380 
   6    -3.6646454   -2.3420362   -7.0737134 
   6     3.8425983   -7.7154670    0.6359632 
   6     4.5001753   -2.8245054   -6.2678574 
   6    -0.8686996   -5.4296759    7.5098779 
   6     9.5762965    1.5969713   -0.5468930 
   6    -8.1494419   -0.2939324   -0.5616781 
   6     0.6793717    4.9907640   -6.8086338 
   1    -4.3817649   -2.8542614   -9.0145100 
   1     4.7645669   -9.6158797    0.8954487 
   1     4.5989130    2.6899824    9.4250904 
   1    -5.1609793    9.0139731    0.1851379 
   1     5.5552293   -3.3807281   -8.0332732 
   1     0.8870676    6.3871959   -8.4052638 
   1     5.2309994    8.9885838    0.8459577 
   1    10.4819786    3.4703742   -1.0002072 
   1    -5.5583898   -9.3362137    0.1951667 
   1   -10.2601324   -0.0246992   -0.7169650 
   1    -5.8217114    3.1718490    8.5711236 
   1    -1.0325414   -6.5624242    9.3076615 
  13     9.4940650   -3.0996171    1.9137398 
   1    11.2907029   -4.0852661    4.1884701 
   1     6.7136821   -2.1206843    3.1784029 
   1     9.0509848   -4.7733961   -0.6332068 
