     0.00   0.00244836374228 
     2.05   0.00717184897651 
     4.11   0.01893578971074 
     6.16   0.04506431751182 
     8.21   0.09668818584744 
    10.26   0.18698751759314 
    12.32   0.32602134937903 
    14.37   0.51259243161464 
    16.42   0.72709149560462 
    18.48   0.93130825296677 
    20.53   1.07925493794269 
    22.58   1.13571301080687 
    24.63   1.09337552583719 
    26.69   0.97704924678696 
    28.74   0.83249857232528 
    30.79   0.70737108552201 
    32.84   0.63648104444714 
    34.90   0.63843350534613 
    36.95   0.72022916659601 
    39.00   0.88027841915933 
    41.06   1.10370899896943 
    43.11   1.35397539578462 
    45.16   1.57218323113740 
    47.21   1.69231748311371 
    49.27   1.66795943157992 
    51.32   1.49470094588089 
    53.37   1.21317885046729 
    55.43   0.89012281603574 
    57.48   0.59038610023130 
    59.53   0.35567542193612 
    61.58   0.19927198241108 
    63.64   0.11402724095991 
    65.69   0.08462840553467 
    67.74   0.09627616532949 
    69.79   0.13687190070962 
    71.85   0.19496789002482 
    73.90   0.25694393590760 
    75.95   0.30769002358903 
    78.01   0.33483712711202 
    80.06   0.33533945570625 
    82.11   0.32016888400149 
    84.16   0.31534685643071 
    86.22   0.35736060039275 
    88.27   0.48352503323798 
    90.32   0.71780492278546 
    92.38   1.05472620143189 
    94.43   1.44825049516215 
    96.48   1.81539339651735 
    98.53   2.06006065797736 
   100.59   2.11019265878701 
   102.64   1.94938478560750 
   104.69   1.62367926428226 
   106.74   1.22018608948549 
   108.80   0.82977420410242 
   110.85   0.51819837618481 
   112.90   0.31685121544037 
   114.96   0.23347706423524 
   117.01   0.27017497811674 
   119.06   0.43536388671690 
   121.11   0.74164739101693 
   123.17   1.18962498555462 
   125.22   1.74601666183574 
   127.27   2.33049649392299 
   129.33   2.82494016059171 
   131.38   3.10853677925456 
   133.43   3.10404206017467 
   135.48   2.81187596042240 
   137.54   2.31030628009444 
   139.59   1.72186613384106 
   141.64   1.16534312264808 
   143.70   0.71881057390263 
   145.75   0.40821956081442 
   147.80   0.21891807716249 
   149.85   0.11693226340277 
   151.91   0.06828465094043 
   153.96   0.04745088045938 
   156.01   0.04274225388394 
   158.06   0.05569370882471 
   160.12   0.10259512365606 
   162.17   0.21734914280313 
   164.22   0.45267484277784 
   166.28   0.87124905986833 
   168.33   1.52199143543228 
   170.38   2.40105754991859 
   172.43   3.41596558006104 
   174.49   4.38108871658380 
   176.54   5.06482100896658 
   178.59   5.27773632020790 
   180.65   4.95738607074557 
   182.70   4.19770774081064 
   184.75   3.20587333276745 
   186.80   2.21315608802931 
   188.86   1.39449048270963 
   190.91   0.83510825372164 
   192.96   0.54613625574699 
   195.01   0.50215304032006 
   197.07   0.66960136570483 
   199.12   1.01074394174626 
   201.17   1.46925510199350 
   203.23   1.95612456681937 
   205.28   2.35778482665015 
   207.33   2.56950537400798 
   209.38   2.54194647792555 
   211.44   2.31067461508703 
   213.49   1.99439625217422 
   215.54   1.75718994921342 
   217.60   1.75277320825707 
   219.65   2.07101321238024 
   221.70   2.69982402698750 
   223.75   3.51611214576403 
   225.81   4.31760462744982 
   227.86   4.89650845976398 
   229.91   5.12964753811417 
   231.96   5.03660172585318 
   234.02   4.76429544333140 
   236.07   4.49907563270173 
   238.12   4.35732865742915 
   240.18   4.32345162985630 
   242.23   4.27201435237005 
   244.28   4.05558264612409 
   246.33   3.59777919939768 
   248.39   2.93268582928498 
   250.44   2.18137233529658 
   252.49   1.48885668186799 
   254.55   0.97147195849983 
   256.60   0.70111588227961 
   258.65   0.72180867597673 
   260.70   1.07175457834870 
   262.76   1.78039047746859 
   264.81   2.83388897914181 
   266.86   4.12509186341357 
   268.91   5.43002396246070 
   270.97   6.44739626072233 
   273.02   6.90126997515981 
   275.07   6.65956647602671 
   277.13   5.79389787589853 
   279.18   4.54897266239717 
   281.23   3.23562648256475 
   283.28   2.11882113652580 
   285.34   1.35840793620438 
   287.39   1.01597342186645 
   289.44   1.09569164700945 
   291.50   1.57387385143155 
   293.55   2.39277411378715 
   295.60   3.43004386344175 
   297.65   4.48132864822404 
   299.71   5.29119292591827 
   301.76   5.63464418991024 
   303.81   5.40920873345507 
   305.87   4.68226025080855 
   307.92   3.65639851894410 
   309.97   2.58535027065117 
   312.02   1.68381307135520 
   314.08   1.08835442510168 
   316.13   0.87784393613131 
   318.18   1.12523421286533 
   320.23   1.93358740157729 
   322.29   3.41618866386026 
   324.34   5.61001383577414 
   326.39   8.35799004281542 
   328.45  11.23877211713108 
   330.50  13.62525367961713 
   332.55  14.89039766650926 
   334.60  14.66780358281613 
   336.66  13.02370916798434 
   338.71  10.42413971038003 
   340.76   7.52391873979368 
   342.82   4.90586009784701 
   344.87   2.91427348638247 
   346.92   1.63935840194287 
   348.97   1.01050219785896 
   351.03   0.91097659328152 
   353.08   1.24607193546863 
   355.13   1.94433512865422 
   357.18   2.91413963273501 
   359.24   3.99992867729708 
   361.29   4.98010462880446 
   363.34   5.62183407449633 
   365.40   5.76699831987557 
   367.45   5.39712972328723 
   369.50   4.63851491458723 
   371.55   3.70465950547433 
   373.61   2.81805285066985 
   375.66   2.15509447002220 
   377.71   1.82689841874766 
   379.77   1.88410833102115 
   381.82   2.31864441474265 
   383.87   3.05811006855972 
   385.92   3.98136168764488 
   387.98   4.97115765213020 
   390.03   5.99835277073990 
   392.08   7.19813416717728 
   394.13   8.86237673063905 
   396.19  11.32524494487985 
   398.24  14.77786571665301 
   400.29  19.11216856264379 
   402.35  23.88137791554627 
   404.40  28.40110756727347 
   406.45  31.93455406332961 
   408.50  33.87585653390347 
   410.56  33.87348728485258 
   412.61  31.88561658400740 
   414.66  28.18242217397151 
   416.72  23.29954259736123 
   418.77  17.93372124659023 
   420.82  12.78727106577749 
   422.87   8.40565720669652 
   424.93   5.07159242811432 
   426.98   2.79834144140125 
   429.03   1.40826620825066 
   431.09   0.64725775065558 
   433.14   0.27856839535099 
   435.19   0.13397253158103 
   437.24   0.11980995574477 
   439.30   0.20666057967978 
   441.35   0.40882156157860 
   443.40   0.75689414145498 
   445.45   1.26955413220490 
   447.51   1.92144395609707 
   449.56   2.62145656086706 
   451.61   3.22493934989610 
   453.67   3.57987992335529 
   455.72   3.59284039008759 
   457.77   3.27797683418290 
   459.82   2.75921286174002 
   461.88   2.22305410476309 
   463.93   1.84729957840876 
   465.98   1.73885813423055 
   468.04   1.90211170206605 
   470.09   2.24321530496815 
   472.14   2.60608851116629 
   474.19   2.82959008706522 
   476.25   2.80686460532187 
   478.30   2.52192722691227 
   480.35   2.04594763037085 
   482.40   1.49780024783802 
   484.46   0.99041513808075 
   486.51   0.59712067943305 
   488.56   0.34461624521977 
   490.62   0.23310051933102 
   492.67   0.26432889053467 
   494.72   0.46250534249916 
   496.77   0.87612047521119 
   498.83   1.55482387227767 
   500.88   2.50486533635455 
   502.93   3.64286192310033 
   504.99   4.77734979881599 
   507.04   5.65241829744096 
   509.09   6.04337075793809 
   511.14   5.86664283539787 
   513.20   5.24019624162541 
   515.25   4.45867554562508 
   517.30   3.89427959445023 
   519.35   3.86776742681716 
   521.41   4.53459496159414 
   523.46   5.81594888223043 
   525.51   7.39670522764741 
   527.57   8.80779487470555 
   529.62   9.58496328319361 
   531.67   9.44742129087061 
   533.72   8.40738716491303 
   535.78   6.74995550315805 
   537.83   4.89029428990405 
   539.88   3.21105694536955 
   541.94   1.95069766924306 
   543.99   1.20082972245322 
   546.04   0.97403273004317 
   548.09   1.28435269268495 
   550.15   2.18254076700923 
   552.20   3.71944198252661 
   554.25   5.84955259315353 
   556.30   8.33430793069117 
   558.36  10.72115630877420 
   560.41  12.45527159597172 
   562.46  13.09941333252223 
   564.52  12.54718352882376 
   566.57  11.10014628698954 
   568.62   9.34471308074316 
   570.67   7.89162055858039 
   572.73   7.11658853884347 
   574.78   7.02970886695364 
   576.83   7.32199625143467 
   578.89   7.54769690891198 
   580.94   7.34205837627315 
   582.99   6.57172744981431 
   585.04   5.35565241140509 
   587.10   3.97161235323133 
   589.15   2.71977059409811 
   591.20   1.82139287062336 
   593.26   1.39062334687835 
   595.31   1.45069016761943 
   597.36   1.96243281582943 
   599.41   2.82406153615190 
   601.47   3.85782813257990 
   603.52   4.81730994093678 
   605.57   5.44186546042519 
   607.62   5.54619771508613 
   609.68   5.09603019556868 
   611.73   4.22098710340632 
   613.78   3.15132465881233 
   615.84   2.12065177480432 
   617.89   1.28630116454618 
   619.94   0.70325536713061 
   621.99   0.34656167803652 
   624.05   0.15393774140220 
   626.10   0.06163207259680 
   628.15   0.02224157434654 
   630.21   0.00723471400069 
   632.26   0.00212116425445 
   634.31   0.00056056286248 
   636.36   0.00000000000000 
   638.42   0.00000000000000 
   640.47   0.00000000000000 
   642.52   0.00000000000000 
   644.57   0.00000000000000 
   646.63   0.00042349619914 
   648.68   0.00164618718022 
   650.73   0.00576774436570 
   652.79   0.01835008234152 
   654.84   0.05235725036012 
   656.89   0.13475149827963 
   658.94   0.31290174331610 
   661.00   0.65573668701508 
   663.05   1.24204483037191 
   665.10   2.12574842126021 
   667.16   3.29432903349930 
   669.21   4.63677539878788 
   671.26   5.96212639604101 
   673.31   7.08397807208261 
   675.37   7.94451351064726 
   677.42   8.70847214120972 
   679.47   9.73850884882861 
   681.52  11.43648760665072 
   683.58  13.99265426026163 
   685.63  17.19273341327011 
   687.68  20.43350246759549 
   689.74  22.99215843795527 
   691.79  24.42549876002454 
   693.84  24.84235241014143 
   695.89  24.83797700464143 
   697.95  25.09785049932312 
   700.00  25.92975824444179 
   702.05  27.04143108237894 
   704.11  27.71532702801213 
   706.16  27.25103142737024 
   708.21  25.37835332310716 
   710.26  22.40501684146877 
   712.32  19.05294710909277 
   714.37  16.11648021126088 
   716.42  14.12777129277631 
   718.48  13.16816068454609 
   720.53  12.88236309939045 
   722.58  12.68205196944327 
   724.63  12.03161668918145 
   726.69  10.69576135214813 
   728.74   8.81916599670197 
   730.79   6.83121588510651 
   732.84   5.25004307940135 
   734.90   4.50071955936594 
   736.95   4.81332752846209 
   739.00   6.19446792041976 
   741.06   8.45010442261508 
   743.11  11.23553761538710 
   745.16  14.12833933470051 
   747.21  16.70863774323364 
   749.27  18.61449614953403 
   751.32  19.56495046918679 
   753.37  19.37778490054009 
   755.43  18.01474596471907 
   757.48  15.63383157492962 
   759.53  12.59735801532171 
   761.58   9.38641847047226 
   763.64   6.45380794842954 
   765.69   4.09504744490394 
   767.74   2.40283490110745 
   769.79   1.30842204934505 
   771.85   0.66394643536210 
   773.90   0.31509766348688 
   775.95   0.13984645127999 
   778.01   0.05829100648318 
   780.06   0.02267259778413 
   782.11   0.00819039264408 
   784.16   0.00293243221279 
   786.22   0.00307282708931 
   788.27   0.00838893757023 
   790.32   0.02598414003590 
   792.38   0.07415292546878 
   794.43   0.19116009665980 
   796.48   0.44418438122538 
   798.53   0.93030727136990 
   800.59   1.75625121391206 
   802.64   2.98843593061801 
   804.69   4.58351177430876 
   806.74   6.33650589493553 
   808.80   7.89584156085520 
   810.85   8.86837598007964 
   812.90   8.97815003882697 
   814.96   8.19269355831452 
   817.01   6.73850651374679 
   819.06   4.99571534415728 
   821.11   3.33832647037920 
   823.17   2.01074509445085 
   825.22   1.09183508642368 
   827.27   0.53493557548475 
   829.33   0.23821556230422 
   831.38   0.10190385742851 
   833.43   0.05712347624410 
   835.48   0.07163632194318 
   837.54   0.14459059532326 
   839.59   0.29741351927272 
   841.64   0.56058694074571 
   843.70   0.95506689435714 
   845.75   1.46775753563519 
   847.80   2.03411703856308 
   849.85   2.54599841759729 
   851.91   2.88720279965196 
   853.96   2.99040577750348 
   856.01   2.88473922769308 
   858.06   2.70422427064078 
   860.12   2.64511352278645 
   862.17   2.88563567016632 
   864.22   3.49994521919854 
   866.28   4.40377092424955 
   868.33   5.36229206717185 
   870.38   6.06889137997581 
   872.43   6.26793216895001 
   874.49   5.86307994041102 
   876.54   4.95255734655338 
   878.59   3.77345404425851 
   880.65   2.59217259748543 
   882.70   1.60514302012778 
   884.75   0.89599584922584 
   886.80   0.45081187858848 
   888.86   0.20444749513440 
   890.91   0.08357287200797 
   892.96   0.03079257090692 
   895.01   0.01022642089335 
   897.07   0.00306124766055 
   899.12   0.00082598157412 
   901.17   0.00000000000000 
   903.23   0.00000000000000 
   905.28   0.00000000000000 
   907.33   0.00000000000000 
   909.38   0.00000000000000 
   911.44   0.00000000000000 
   913.49   0.00000000000000 
   915.54   0.00000000000000 
   917.60   0.00000000000000 
   919.65   0.00000000000000 
   921.70   0.00000000000000 
   923.75   0.00000000000000 
   925.81   0.00000000000000 
   927.86   0.00000000000000 
   929.91   0.00000000000000 
   931.96   0.00000000000000 
   934.02   0.00069786180353 
   936.07   0.00270172261244 
   938.12   0.00942777429687 
   940.18   0.02965341298162 
   942.23   0.08406927171212 
   944.28   0.21483101200401 
   946.33   0.49482741553771 
   948.39   1.02732444562301 
   950.44   1.92246561817535 
   952.49   3.24269894718557 
   954.55   4.93005505968727 
   956.60   6.75606778955703 
   958.65   8.34513405586657 
   960.70   9.29115545462251 
   962.76   9.32402062367979 
   964.81   8.43400422777329 
   966.86   6.87640572593131 
   968.91   5.05343009218193 
   970.97   3.34740392498522 
   973.02   1.99860546155825 
   975.07   1.07558096737123 
   977.13   0.52174252721155 
   979.18   0.22812162484141 
   981.23   0.09134738219922 
   983.28   0.03749018227963 
   985.34   0.02947651471152 
   987.39   0.06309278536164 
   989.44   0.17012055734252 
   991.50   0.42983960973058 
   993.55   0.98337088988120 
   995.60   2.02780109260365 
   997.65   3.76903740410334 
   999.71   6.31440788504326 
  1001.76   9.53524610731176 
  1003.81  12.97861266309007 
  1005.87  15.92288381051715 
  1007.92  17.60809086430132 
  1009.97  17.55092075255295 
  1012.02  15.76829113381406 
  1014.08  12.76928100737593 
  1016.13   9.32063173263635 
  1018.18   6.13227106045801 
  1020.23   3.63659073477938 
  1022.29   1.94385829587961 
  1024.34   0.93829000059059 
  1026.39   0.41341460532292 
  1028.45   0.18244328472524 
  1030.50   0.12888403137489 
  1032.55   0.22294114780558 
  1034.60   0.52646382838989 
  1036.66   1.19593435659023 
  1038.71   2.46732656807898 
  1040.76   4.59328864337156 
  1042.82   7.70757802124544 
  1044.87  11.65760167097544 
  1046.92  15.89269628555269 
  1048.97  19.52913673140085 
  1051.03  21.64359401228125 
  1053.08  21.64376395317196 
  1055.13  19.59795533605470 
  1057.18  16.26519064289118 
  1059.24  12.90299213855219 
  1061.29  11.00068924681380 
  1063.34  12.09348563606137 
  1065.40  17.62698560995910 
  1067.45  28.67150515167998 
  1069.50  45.33648068499415 
  1071.55  66.05482564571510 
  1073.61  87.27174483166804 
  1075.66 104.09801950214491 
  1077.71 111.96859098465291 
  1079.77 108.56684232178129 
  1081.82  94.88870731040232 
  1083.87  74.75806037274648 
  1085.92  53.10275580742993 
  1087.98  34.04534940596117 
  1090.03  19.80465064759012 
  1092.08  10.72380836091787 
  1094.13   6.01741804232201 
  1096.19   4.63680564864429 
  1098.24   5.78994369607335 
  1100.29   9.05492985736462 
  1102.35  14.24445882197126 
  1104.40  21.25695776728530 
  1106.45  30.05934711514397 
  1108.50  40.74950899767268 
  1110.56  53.48085088327324 
  1112.61  68.03066937784558 
  1114.66  83.18146876822529 
  1116.72  96.39272583233932 
  1118.77 104.31785317213114 
  1120.82 104.15760858592964 
  1122.87  95.11699941844149 
  1124.93  78.98981623698646 
  1126.98  59.44180621304442 
  1129.03  40.45067594394128 
  1131.09  24.87896004638176 
  1133.14  13.87677122655592 
  1135.19   7.18051621080768 
  1137.24   3.86205756537165 
  1139.30   3.02211218708327 
  1141.35   4.15252286641014 
  1143.40   7.12439778452833 
  1145.45  11.91735808915211 
  1147.51  18.23430586586603 
  1149.56  25.21007534755210 
  1151.61  31.43741456924557 
  1153.67  35.33593527178586 
  1155.72  35.80003483178809 
  1157.77  32.69244468961151 
  1159.82  26.90967397541775 
  1161.88  19.96487357913279 
  1163.93  13.35124553748864 
  1165.98   8.04774285742884 
  1168.04   4.37243628487128 
  1170.09   2.14126282909967 
  1172.14   0.94517789531729 
  1174.19   0.38137271207681 
  1176.25   0.15526826734908 
  1178.30   0.11420462192458 
  1180.35   0.23293807558864 
  1182.40   0.62249953913052 
  1184.46   1.56898582890790 
  1186.51   3.58368271544080 
  1188.56   7.37797489308768 
  1190.62  13.69121164261492 
  1192.67  22.90043251772676 
  1194.72  34.52570661751213 
  1196.77  46.91789907160418 
  1198.83  57.46873367524181 
  1200.88  63.44856268960324 
  1202.93  63.14064866466913 
  1204.99  56.63610523437058 
  1207.04  45.79043938299737 
  1209.09  33.36977908924256 
  1211.14  21.91941414817555 
  1213.20  12.97781691609927 
  1215.25   6.92582372549433 
  1217.30   3.33148846945623 
  1219.35   1.44444924142150 
  1221.41   0.56449921951729 
  1223.46   0.19884812325418 
  1225.51   0.06313595253064 
  1227.57   0.01806878988330 
  1229.62   0.00466099340256 
  1231.67   0.00000000000000 
  1233.72   0.00000000000000 
  1235.78   0.00000000000000 
  1237.83   0.00000000000000 
  1239.88   0.00000000000000 
  1241.94   0.00000000000000 
  1243.99   0.00000000000000 
  1246.04   0.00000000000000 
  1248.09   0.00000000000000 
  1250.15   0.00000000000000 
  1252.20   0.00000000000000 
  1254.25   0.00000000000000 
  1256.30   0.00000000000000 
  1258.36   0.00000000000000 
  1260.41   0.00000000000000 
  1262.46   0.00000000000000 
  1264.52   0.00000000000000 
  1266.57   0.00000000000000 
  1268.62   0.00000000000000 
  1270.67   0.00000000000000 
  1272.73   0.00000000000000 
  1274.78   0.00000000000000 
  1276.83   0.00000000000000 
  1278.89   0.00000000000000 
  1280.94   0.00000000000000 
  1282.99   0.00000000000000 
  1285.04   0.00000000000000 
  1287.10   0.00000000000000 
  1289.15   0.00000000000000 
  1291.20   0.00000000000000 
  1293.26   0.00000000000000 
  1295.31   0.00000000000000 
  1297.36   0.00000000000000 
  1299.41   0.00000000000000 
  1301.47   0.00000000000000 
  1303.52   0.00000000000000 
  1305.57   0.00000000000000 
  1307.62   0.00000000000000 
  1309.68   0.00000000000000 
  1311.73   0.00000000000000 
  1313.78   0.00000000000000 
  1315.84   0.00000000000000 
  1317.89   0.00000000000000 
  1319.94   0.00000000000000 
  1321.99   0.00000000000000 
  1324.05   0.00000000000000 
  1326.10   0.00000000000000 
  1328.15   0.00000000000000 
  1330.21   0.00000000000000 
  1332.26   0.00000000000000 
  1334.31   0.00000000000000 
  1336.36   0.00000000000000 
  1338.42   0.00000000000000 
  1340.47   0.00000000000000 
  1342.52   0.00000000000000 
  1344.57   0.00000000000000 
  1346.63   0.00000000000000 
  1348.68   0.00000000000000 
  1350.73   0.00000000000000 
  1352.79   0.00000000000000 
  1354.84   0.00000000000000 
  1356.89   0.00000000000000 
  1358.94   0.00000000000000 
  1361.00   0.00000000000000 
  1363.05   0.00000000000000 
  1365.10   0.00000000000000 
  1367.16   0.00000000000000 
  1369.21   0.00000000000000 
  1371.26   0.00000000000000 
  1373.31   0.00000000000000 
  1375.37   0.00000000000000 
  1377.42   0.00000000000000 
  1379.47   0.00000000000000 
  1381.52   0.00000000000000 
  1383.58   0.00000000000000 
  1385.63   0.00000000000000 
  1387.68   0.00000000000000 
  1389.74   0.00000000000000 
  1391.79   0.00000000000000 
  1393.84   0.00000000000000 
  1395.89   0.00000000000000 
  1397.95   0.00000000000000 
  1400.00   0.00000000000000 
  1402.05   0.00000000000000 
  1404.11   0.00000000000000 
  1406.16   0.00000000000000 
  1408.21   0.00000000000000 
  1410.26   0.00000000000000 
  1412.32   0.00000000000000 
  1414.37   0.00000000000000 
  1416.42   0.00000000000000 
  1418.48   0.00000000000000 
  1420.53   0.00000000000000 
  1422.58   0.00000000000000 
  1424.63   0.00000000000000 
  1426.69   0.00000000000000 
  1428.74   0.00000000000000 
  1430.79   0.00000000000000 
  1432.84   0.00000000000000 
  1434.90   0.00000000000000 
  1436.95   0.00000000000000 
  1439.00   0.00000000000000 
  1441.06   0.00000000000000 
  1443.11   0.00000000000000 
  1445.16   0.00000000000000 
  1447.21   0.00000000000000 
  1449.27   0.00000000000000 
  1451.32   0.00000000000000 
  1453.37   0.00000000000000 
  1455.43   0.00000000000000 
  1457.48   0.00000000000000 
  1459.53   0.00000000000000 
  1461.58   0.00000000000000 
  1463.64   0.00000000000000 
  1465.69   0.00000000000000 
  1467.74   0.00000000000000 
  1469.79   0.00000000000000 
  1471.85   0.00000000000000 
  1473.90   0.00000000000000 
  1475.95   0.00000000000000 
  1478.01   0.00000000000000 
  1480.06   0.00000000000000 
  1482.11   0.00000000000000 
  1484.16   0.00000000000000 
  1486.22   0.00000000000000 
  1488.27   0.00000000000000 
  1490.32   0.00000000000000 
  1492.38   0.00000000000000 
  1494.43   0.00000000000000 
  1496.48   0.00000000000000 
  1498.53   0.00000000000000 
  1500.59   0.00000000000000 
  1502.64   0.00000000000000 
  1504.69   0.00000000000000 
  1506.74   0.00000000000000 
  1508.80   0.00000000000000 
  1510.85   0.00000000000000 
  1512.90   0.00000000000000 
  1514.96   0.00000000000000 
  1517.01   0.00000000000000 
  1519.06   0.00000000000000 
  1521.11   0.00000000000000 
  1523.17   0.00000000000000 
  1525.22   0.00000000000000 
  1527.27   0.00000000000000 
  1529.33   0.00000000000000 
  1531.38   0.00000000000000 
  1533.43   0.00000000000000 
  1535.48   0.00000000000000 
  1537.54   0.00000000000000 
  1539.59   0.00000000000000 
  1541.64   0.00000000000000 
  1543.70   0.00000000000000 
  1545.75   0.00000000000000 
  1547.80   0.00000000000000 
  1549.85   0.00000000000000 
  1551.91   0.00000000000000 
  1553.96   0.00000000000000 
  1556.01   0.00000000000000 
  1558.06   0.00000000000000 
  1560.12   0.00000000000000 
  1562.17   0.00000000000000 
  1564.22   0.00000000000000 
  1566.28   0.00000000000000 
  1568.33   0.00000000000000 
  1570.38   0.00000000000000 
  1572.43   0.00000000000000 
  1574.49   0.00000000000000 
  1576.54   0.00000000000000 
  1578.59   0.00000000000000 
  1580.65   0.00000000000000 
  1582.70   0.00000000000000 
  1584.75   0.00000000000000 
  1586.80   0.00000000000000 
  1588.86   0.00000000000000 
  1590.91   0.00000000000000 
  1592.96   0.00000000000000 
  1595.01   0.00000000000000 
  1597.07   0.00000000000000 
  1599.12   0.00000000000000 
  1601.17   0.00000000000000 
  1603.23   0.00000000000000 
  1605.28   0.00000000000000 
  1607.33   0.00000000000000 
  1609.38   0.00000000000000 
  1611.44   0.00000000000000 
  1613.49   0.00000000000000 
  1615.54   0.00000000000000 
  1617.60   0.00000000000000 
  1619.65   0.00000000000000 
  1621.70   0.00000000000000 
  1623.75   0.00000000000000 
  1625.81   0.00000000000000 
  1627.86   0.00000000000000 
  1629.91   0.00000000000000 
  1631.96   0.00000000000000 
  1634.02   0.00000000000000 
  1636.07   0.00118270151943 
  1638.12   0.00439206332623 
  1640.18   0.01470141447636 
  1642.23   0.04435542453243 
  1644.28   0.12062336751799 
  1646.33   0.29567407528024 
  1648.39   0.65326912913160 
  1650.44   1.30097249267587 
  1652.49   2.33529195113568 
  1654.55   3.77842965250713 
  1656.60   5.51034244392022 
  1658.65   7.24340765175553 
  1660.70   8.58231312857586 
  1662.76   9.16564166217037 
  1664.81   8.82304475995975 
  1666.86   7.65545804451986 
  1668.91   5.98716144217645 
  1670.97   4.22053831409582 
  1673.02   2.68171002397924 
  1675.07   1.53586439854065 
  1677.13   0.79284998386422 
  1679.18   0.36891495406763 
  1681.23   0.15472432187567 
  1683.28   0.05849085988396 
  1685.34   0.01993033112238 
  1687.39   0.00612122174244 
  1689.44   0.00169456721665 
  1691.50   0.00042284050053 
  1693.55   0.00000000000000 
  1695.60   0.00000000000000 
  1697.65   0.00000000000000 
  1699.71   0.00000000000000 
  1701.76   0.00000000000000 
  1703.81   0.00000000000000 
  1705.87   0.00000000000000 
  1707.92   0.00227243217698 
  1709.97   0.00890039487453 
  1712.02   0.03142134055521 
  1714.08   0.09998554876799 
  1716.13   0.28677867201611 
  1718.18   0.74140166000097 
  1720.23   1.72765630252308 
  1722.29   3.62875989863550 
  1724.34   6.86999163430867 
  1726.39  11.72333763311257 
  1728.45  18.03198043705462 
  1730.50  24.99957768034808 
  1732.55  31.24057414180290 
  1734.60  35.19324173975815 
  1736.66  35.74394228562572 
  1738.71  32.75727428982903 
  1740.76  27.17054962201054 
  1742.82  20.63371957916902 
  1744.87  14.94795312276929 
  1746.92  11.64305122270411 
  1748.97  11.83593076938621 
  1751.03  16.22758271546834 
  1753.08  24.97926921471693 
  1755.13  37.37280118056553 
  1757.18  51.48268944842259 
  1759.24  64.28505174359978 
  1761.29  72.45911192574808 
  1763.34  73.64416216418975 
  1765.40  67.47117979980460 
  1767.45  55.72056971876975 
  1769.50  41.47724310960722 
  1771.55  27.82923743294960 
  1773.61  16.83022104719746 
  1775.66   9.17435252477257 
  1777.71   4.50968736709073 
  1779.77   2.00376345129123 
  1781.82   0.82222021389682 
  1783.87   0.36462460224554 
  1785.92   0.30910475268036 
  1787.98   0.56768495988802 
  1790.03   1.22563139772535 
  1792.08   2.47588183756934 
  1794.13   4.53463815250679 
  1796.19   7.48604530932233 
  1798.24  11.13933731036032 
  1800.29  14.94043865510093 
  1802.35  18.06194153995365 
  1804.40  19.68169991579919 
  1806.45  19.33115795550178 
  1808.50  17.11394858999448 
  1810.56  13.65650809836359 
  1812.61   9.82259414721619 
  1814.66   6.37869170395861 
  1816.72   3.76061562930830 
  1818.77   2.09182506071871 
  1820.82   1.32827134452740 
  1822.87   1.48020192554622 
  1824.93   2.80681117588159 
  1826.98   5.91773425376642 
  1829.03  11.69994327034067 
  1831.09  20.98459381129918 
  1833.14  33.95907122816679 
  1835.19  49.54218837571072 
  1837.24  65.14889436486671 
  1839.30  77.22110344607727 
  1841.35  82.50153833645003 
  1843.40  79.44840447875428 
  1845.45  68.96129419242884 
  1847.51  53.95388433882525 
  1849.56  38.04846318833987 
  1851.61  24.18514041686729 
  1853.67  13.85671766687267 
  1855.72   7.15626062667404 
  1857.77   3.33224148358411 
  1859.82   1.40157969492668 
  1861.88   0.53972323392767 
  1863.93   0.20818575459250 
  1865.98   0.11855718363562 
  1868.04   0.14380160159410 
  1870.09   0.23920836349941 
  1872.14   0.38871791499778 
  1874.19   0.57862010730416 
  1876.25   0.77633573327566 
  1878.30   0.93886407468477 
  1880.35   1.02341777604528 
  1882.40   1.00554215227091 
  1884.46   0.89052208757900 
  1886.51   0.71086347543005 
  1888.56   0.51147545254117 
  1890.62   0.33171146319777 
  1892.67   0.19390689616582 
  1894.72   0.10598619131895 
  1896.77   0.06320538082402 
  1898.83   0.07168571773291 
  1900.88   0.16715570025066 
  1902.93   0.45114446637808 
  1904.99   1.13945309753640 
  1907.04   2.61907121267546 
  1909.09   5.42345293542045 
  1911.14  10.15279204133818 
  1913.20  17.21840225120722 
  1915.25  26.55233801423088 
  1917.30  37.46131031361801 
  1919.35  48.82351007606697 
  1921.41  59.60421276989298 
  1923.46  69.34265639843548 
  1925.51  78.15210486067703 
  1927.57  86.10528360787453 
  1929.62  92.46025191344066 
  1931.67  95.47124585678407 
  1933.72  93.14594142824907 
  1935.78  84.51270542322980 
  1937.83  70.47050977219521 
  1939.88  53.58185018421492 
  1941.94  36.97010024186657 
  1943.99  23.08120605733319 
  1946.04  13.01720549117829 
  1948.09   6.62543369430012 
  1950.15   3.04167577671415 
  1952.20   1.25833287510478 
  1954.25   0.46976611184551 
  1956.30   0.15807562785568 
  1958.36   0.04794521126068 
  1960.41   0.01310758394423 
  1962.46   0.00000000000000 
  1964.52   0.08076535026904 
  1966.57   0.30381193936278 
  1968.62   1.04199055475115 
  1970.67   3.19336913061872 
  1972.73   8.82724992478633 
  1974.78  22.02036035755791 
  1976.83  49.55986206096539 
  1978.89 100.68323165945016 
  1980.94 184.71093675383057 
  1982.99 306.19111004326459 
  1985.04 458.95995388415957 
  1987.10 622.75547928679111 
  1989.15 766.14920403939095 
  1991.20 856.60830463591344 
  1993.26 873.60640971573321 
  1995.31 817.42690052330045 
  1997.36 708.49967275408176 
  1999.41 578.00536099622161 
  2001.47 455.65316440254071 
  2003.52 361.26754601162202 
  2005.57 302.69214721174916 
  2007.62 278.34133933139253 
  2009.68 280.91726766891111 
  2011.73 300.18451921461599 
  2013.78 324.87687156219459 
  2015.84 344.67055062071256 
  2017.89 352.32748356551451 
  2019.94 344.98291530773037 
  2021.99 323.63837300446932 
  2024.05 291.32656708298589 
  2026.10 251.27458731936102 
  2028.15 206.47555706272018 
  2030.21 160.14155809260515 
  2032.26 116.01908870144626 
  2034.31  77.83906060012819 
  2036.36  48.28965653204210 
  2038.42  28.43211179172665 
  2040.47  18.11067135581920 
  2042.52  17.01408855980342 
  2044.57  25.68329888669521 
  2046.63  45.62320045559844 
  2048.68  78.20446682950767 
  2050.73 122.52912109918611 
  2052.79 173.51716271272426 
  2054.84 221.59668154178047 
  2056.89 255.12428063801116 
  2058.94 264.75088703281040 
  2061.00 247.63962890346423 
  2063.05 208.78531791615814 
  2065.10 158.66343626877529 
  2067.16 108.68030447265147 
  2069.21  67.09990835936010 
  2071.26  37.34135710987790 
  2073.31  18.73075822968636 
  2075.37   8.46871872501257 
  2077.42   3.45125579780400 
  2079.47   1.26775017660920 
  2081.52   0.41974670942118 
  2083.58   0.12526738476497 
  2085.63   0.03369657893395 
  2087.68   0.00000000000000 
  2089.74   0.00000000000000 
  2091.79   0.00000000000000 
  2093.84   0.00000000000000 
  2095.89   0.00000000000000 
  2097.95   0.00000000000000 
  2100.00   0.00000000000000 
