Corrected dielectric energy   =     -0.008763616
Total C-PCM charge            =     -0.000000000
C-PCM corrected charges:
     0.000218202
    -0.000280129
    -0.000246745
    -0.000739037
    -0.000047640
    -0.001825309
    -0.000000033
    -0.000610161
    -0.000000025
    -0.001771112
    -0.001420347
    -0.001705796
    -0.001166516
    -0.000215823
     0.000238758
    -0.000419034
    -0.001861028
     0.000607222
    -0.000000394
    -0.002795732
     0.000240427
     0.000114061
    -0.000413980
    -0.000419082
    -0.000482605
     0.000809839
     0.000557665
    -0.000005790
    -0.001281249
    -0.000572103
    -0.001098930
    -0.001195938
    -0.000611986
    -0.001300455
    -0.001350285
    -0.000000015
    -0.000942353
    -0.000000001
    -0.001163205
    -0.002240072
     0.000610276
    -0.001600409
    -0.000000041
    -0.001082541
    -0.001797663
     0.000454816
    -0.000000001
    -0.000471835
    -0.002054336
     0.000038020
    -0.000915456
     0.000297404
    -0.000007238
    -0.000748345
    -0.001152956
    -0.000000112
    -0.000478938
    -0.000011340
    -0.000833996
    -0.000437480
    -0.000999922
    -0.000511770
    -0.000546299
    -0.000863293
    -0.000635278
     0.000530082
     0.000000006
     0.000605785
     0.000456846
     0.000415589
     0.000034261
     0.000001428
     0.000446776
    -0.001433408
    -0.000766164
    -0.001561914
    -0.000001554
    -0.001800857
     0.000185482
    -0.000507147
    -0.001424115
    -0.000277023
    -0.000003765
    -0.000000002
     0.000001139
     0.000780755
     0.000416764
     0.000171744
    -0.000386714
     0.000708236
     0.000002153
     0.000000708
    -0.000112476
     0.000314864
    -0.000008857
    -0.000423333
    -0.001698847
     0.000052733
    -0.001815706
    -0.000000451
     0.000013967
     0.000472025
     0.000568843
    -0.000439393
    -0.002112522
    -0.000986989
    -0.000604684
    -0.000195214
     0.000663435
    -0.000152733
     0.000828353
     0.000566911
    -0.001697220
     0.000129824
     0.000746098
    -0.000185742
    -0.000000000
    -0.000205029
    -0.001396819
    -0.000538003
    -0.000435160
    -0.001195347
    -0.000000004
     0.000595156
     0.000055828
    -0.000003030
     0.000177675
    -0.000051848
    -0.000197008
     0.000000402
    -0.002243724
    -0.000801695
    -0.000000006
    -0.001004551
    -0.000004168
     0.000002814
     0.000323219
    -0.000000001
    -0.001627263
     0.000209516
    -0.001658335
     0.000099354
    -0.000783026
    -0.002274746
     0.000013021
     0.000000970
    -0.001178397
    -0.000129440
    -0.001993903
    -0.000251859
    -0.000328137
     0.000840056
    -0.001104022
    -0.000936031
    -0.000000002
     0.001028466
     0.000001193
    -0.000000017
    -0.000360853
    -0.000153820
    -0.001536273
    -0.000241829
    -0.002027972
    -0.000202105
    -0.001845746
    -0.000020672
     0.000483593
    -0.000020280
     0.000002041
     0.000594383
    -0.001083366
    -0.000000056
    -0.000007560
    -0.000854852
     0.000632977
    -0.000727439
    -0.000940724
    -0.002578839
    -0.001931610
    -0.001462962
     0.000492248
    -0.000523820
    -0.001844845
    -0.000877545
    -0.000001807
     0.000002560
    -0.002135876
     0.000604236
    -0.002070151
    -0.001430574
    -0.000000003
     0.000573236
     0.000375179
    -0.000804243
     0.000644623
    -0.000001982
     0.000440765
     0.000268806
    -0.000227057
    -0.000546868
    -0.000373033
     0.000036746
     0.000000151
    -0.000602480
     0.000058690
     0.000713402
    -0.000815631
     0.000424011
    -0.000340984
    -0.000417477
     0.000006184
     0.000070124
    -0.001210462
    -0.001150163
    -0.000586280
    -0.000002911
    -0.002873917
     0.000591176
     0.000136926
    -0.001397216
    -0.000002558
    -0.000014172
     0.000556272
    -0.001539990
    -0.000038951
    -0.001466942
    -0.001351503
     0.000218100
    -0.000000079
     0.000584656
    -0.000210145
    -0.000495914
    -0.000000157
    -0.000058346
    -0.000897671
    -0.000000719
     0.000091128
    -0.001775016
    -0.001365830
     0.000474845
    -0.000000035
    -0.000004286
     0.000075110
    -0.000978982
    -0.000070754
    -0.000423986
    -0.000505066
    -0.000121764
    -0.001778738
    -0.001803303
    -0.001169871
    -0.000304244
    -0.000689755
    -0.001438454
    -0.000638016
    -0.000000053
    -0.001411605
    -0.002222374
    -0.000874193
    -0.000116504
    -0.000416357
    -0.000000001
     0.000000282
    -0.001198361
    -0.000661054
     0.000587521
    -0.000000001
     0.000060369
     0.000057097
     0.000406473
    -0.000991591
    -0.001372708
    -0.000715460
    -0.001124773
    -0.001018583
    -0.000880002
    -0.000720428
    -0.000000003
    -0.000666378
    -0.000000002
    -0.000000087
     0.000490726
     0.000466524
    -0.000566637
    -0.000952050
    -0.002966583
    -0.000089593
    -0.001494439
    -0.000275363
    -0.001418740
     0.000002649
    -0.000487364
    -0.000253391
     0.000364574
    -0.000599534
    -0.000719374
    -0.001846383
    -0.000000061
     0.000195440
    -0.001943165
     0.000006303
    -0.000768451
    -0.000023093
    -0.001027389
    -0.000201522
    -0.000000016
    -0.000721102
     0.000527030
    -0.000485084
    -0.000000001
     0.000089999
    -0.002317977
    -0.002380729
    -0.000686650
    -0.001910544
    -0.001084693
     0.000082300
    -0.000651276
    -0.000000004
     0.000211606
    -0.001228036
    -0.000388686
     0.000000305
    -0.000000001
    -0.000065458
    -0.002138891
    -0.000609002
    -0.000000053
    -0.000328043
    -0.002349082
     0.000305577
    -0.000679056
    -0.000908136
    -0.002195070
    -0.000000220
    -0.000000027
    -0.000828567
    -0.001003536
    -0.000004942
     0.000727813
     0.000242204
    -0.000000002
    -0.001951578
     0.000204982
    -0.002670253
    -0.000000264
    -0.000130608
    -0.002826850
    -0.002035031
    -0.001041340
     0.000506096
    -0.001411663
    -0.001974099
    -0.001120048
    -0.000651508
    -0.000190982
    -0.000000002
     0.000001961
    -0.000505511
     0.000211804
     0.000628461
    -0.001143641
    -0.000902023
     0.000630745
    -0.001178131
    -0.000196414
    -0.000000283
    -0.002982335
    -0.000562160
    -0.000569382
     0.000725947
    -0.001095311
    -0.000375087
    -0.002612668
    -0.000539263
     0.000760204
    -0.002148895
    -0.000000013
     0.000269399
    -0.000000095
    -0.000000218
    -0.000728767
    -0.001304214
     0.000506528
    -0.000331908
    -0.001621832
    -0.002758460
    -0.001287482
    -0.000000213
    -0.000102279
     0.000001949
    -0.000788560
    -0.000755099
    -0.002490268
    -0.000013211
    -0.000062435
    -0.002212190
    -0.001548262
    -0.001318603
    -0.000000060
    -0.001146152
     0.000634676
     0.000625266
     0.000040824
     0.000104688
    -0.001255206
     0.000452076
    -0.000000025
    -0.000435904
     0.000174888
    -0.000160920
    -0.000125572
    -0.000615623
    -0.000000003
    -0.000000005
    -0.000000819
    -0.000195469
     0.000284173
    -0.000011206
     0.000441741
    -0.000394149
    -0.000139788
    -0.000001537
    -0.000516614
    -0.000481982
    -0.000623164
    -0.000000119
    -0.001442007
    -0.000349801
     0.000197739
    -0.000353563
    -0.000020871
    -0.000115800
    -0.000000003
    -0.000508635
    -0.000112379
     0.000210267
    -0.000011364
    -0.000005957
     0.000544291
     0.000701117
     0.000069793
     0.001962569
     0.001594736
     0.001417554
     0.001699400
    -0.000000135
     0.000651664
    -0.000012621
     0.001638214
    -0.000001242
     0.000001851
    -0.000000061
    -0.000057769
     0.001555827
    -0.000000001
    -0.000046906
     0.001665474
     0.001203093
     0.001077522
     0.001221229
     0.001106486
     0.002049795
     0.001481057
     0.001898548
     0.001532539
     0.001761481
     0.001596144
     0.001834839
     0.001701562
    -0.000087892
    -0.000151666
     0.001915882
    -0.000000080
    -0.000000209
     0.001607640
     0.001356408
    -0.000000035
     0.001814347
     0.000153666
     0.001678355
     0.000541396
    -0.000000531
     0.001700303
    -0.000010169
    -0.000000001
     0.001829311
     0.001665297
     0.001334588
     0.001676687
     0.001412476
     0.000606016
     0.001686668
     0.001665441
     0.001303694
     0.001821717
     0.001608205
     0.001435626
     0.001507052
    -0.000006276
     0.001510079
    -0.000013350
     0.001358814
     0.000766714
     0.000052841
    -0.000157988
    -0.000336906
    -0.000140307
    -0.000000009
     0.000237375
     0.000132676
    -0.000057947
    -0.000228161
    -0.000086833
    -0.000076776
     0.000237726
    -0.000000185
    -0.000000010
    -0.000042365
    -0.000000206
    -0.000048221
    -0.000395989
    -0.000021493
    -0.000076169
    -0.000521145
    -0.000390762
    -0.000174492
     0.000302685
    -0.000085516
    -0.000294591
    -0.000002595
    -0.001045910
     0.000611372
     0.000794642
     0.000659233
     0.001754072
     0.000135509
    -0.000000054
     0.001452636
     0.002239069
    -0.000002402
     0.000413701
     0.001627692
    -0.000006911
     0.001607153
     0.000554602
     0.001548165
     0.001314414
     0.001453615
     0.001229703
     0.001424464
     0.001143668
     0.001342744
     0.001505973
     0.001668144
     0.001384758
     0.002165575
     0.001902356
     0.001840967
     0.001538504
     0.001838876
    -0.000000265
     0.001549168
     0.001516906
     0.001767360
     0.000060166
     0.001536153
    -0.000002310
    -0.000008920
     0.001646166
     0.002085024
    -0.000000053
     0.001730097
    -0.000000085
     0.000049991
     0.001519645
     0.000181087
     0.001522008
     0.001965281
     0.001309033
     0.001822596
    -0.000000967
     0.001529847
     0.000008355
     0.001331869
     0.001934027
     0.000644730
     0.001805332
     0.001744157
     0.001492921
    -0.000002591
     0.001916047
    -0.000009521
     0.001188244
     0.001872112
     0.000123182
    -0.000000009
    -0.000400941
    -0.000000001
    -0.000283987
    -0.000001353
    -0.000274199
     0.000719721
    -0.000038649
     0.000578122
    -0.000000543
    -0.000124091
    -0.000313106
    -0.000417136
    -0.000301950
    -0.000000335
    -0.000245421
    -0.001177960
    -0.000037926
    -0.000162818
     0.000621299
     0.000361674
    -0.000491031
    -0.000000020
     0.000578601
    -0.000179780
    -0.000001584
    -0.000038039
     0.000785136
     0.000757433
     0.000551471
    -0.000002905
     0.001236946
     0.001796879
     0.001827684
    -0.000012844
     0.001005563
     0.001154271
     0.001165308
     0.001311360
     0.001313782
     0.000301234
     0.001349773
     0.001494269
     0.001285428
     0.000181559
     0.001396302
    -0.000000001
     0.001553176
     0.001846635
    -0.000000003
     0.001538474
     0.000707395
     0.000296618
     0.001269918
     0.001815331
     0.001500773
     0.000876193
     0.001242429
     0.001451567
     0.001742742
     0.000700665
     0.001121823
     0.001491164
     0.001518875
     0.001687719
     0.000373502
    -0.000000008
     0.001354016
     0.001735785
     0.000121983
    -0.000000001
     0.000296381
    -0.000000001
     0.001382266
     0.000326291
     0.001803714
    -0.000000003
     0.001728931
     0.000428233
    -0.000000000
     0.001756696
    -0.000000008
     0.000130671
     0.001248181
     0.001694534
    -0.000000873
     0.001493938
    -0.000007790
     0.001225360
     0.001692728
    -0.000002127
     0.001438053
    -0.000019061
     0.000075228
    -0.000302951
    -0.000193280
    -0.000065125
     0.000000332
    -0.001641587
    -0.000208341
    -0.000835734
     0.000075777
    -0.000945408
    -0.001922409
    -0.001545744
    -0.001495696
    -0.000000000
    -0.002112680
    -0.000000139
     0.000189490
    -0.001887672
    -0.000572131
     0.000009381
     0.001074293
    -0.000132018
    -0.000398699
    -0.000422707
    -0.001093275
     0.000336530
    -0.000730116
    -0.000160226
    -0.000000002
    -0.001266326
    -0.000072202
     0.000381456
    -0.000022701
    -0.000000018
    -0.000879705
    -0.001586745
    -0.000429978
    -0.001228477
     0.000437042
    -0.002124143
    -0.000000002
    -0.000973303
     0.000691515
    -0.001481196
    -0.001487864
    -0.000000004
    -0.001463007
    -0.000116317
     0.000401084
    -0.002012250
    -0.000617244
     0.000229661
    -0.000000001
    -0.001003943
    -0.001030681
    -0.000000791
     0.000142029
    -0.000965664
    -0.000401357
    -0.000638422
     0.000222358
    -0.000825455
    -0.000910269
    -0.000618088
    -0.000436450
    -0.000000001
    -0.000133856
     0.000157268
     0.000031894
     0.000199227
    -0.000000000
     0.000750176
    -0.001619757
    -0.000000864
    -0.001668172
    -0.000968194
    -0.001138272
     0.000106155
    -0.000041126
    -0.000726656
    -0.001471932
    -0.000628236
     0.000374442
     0.000032329
    -0.000386750
     0.000018979
     0.000601569
     0.000139600
     0.000000425
     0.000023922
    -0.000494029
    -0.000008723
    -0.000000018
     0.000202429
    -0.000500218
     0.000109089
     0.000006799
     0.000809018
     0.000000639
    -0.000000012
    -0.001915247
     0.000267497
    -0.001705186
    -0.001239238
    -0.002149136
     0.000110259
     0.000031824
    -0.000564835
    -0.000501817
     0.000766956
    -0.000444468
     0.000849509
    -0.001606718
     0.000599765
    -0.000176277
     0.000458232
     0.000891837
    -0.000373923
    -0.001598742
     0.000205584
    -0.000000057
    -0.001416602
    -0.000253871
    -0.000054748
     0.000708562
     0.000631069
    -0.000140576
    -0.000433199
     0.000652101
    -0.000058718
    -0.002265850
     0.000001040
    -0.000000012
    -0.000000063
    -0.000988539
     0.000000343
    -0.001586419
    -0.000000001
     0.000717727
    -0.001905644
     0.000731329
    -0.000462031
    -0.002321932
    -0.000547617
     0.000001405
    -0.000372509
    -0.001796677
    -0.000185815
    -0.000732928
    -0.000000008
     0.000872267
    -0.000464070
    -0.001204405
     0.000227669
    -0.000380269
     0.000123052
    -0.002049336
    -0.000281604
    -0.000494877
    -0.000000072
     0.000053354
    -0.000000000
    -0.000087538
     0.000517394
    -0.000005135
    -0.002041767
    -0.000921839
    -0.001946753
    -0.000791601
    -0.000002662
     0.000073518
    -0.001090096
     0.000343429
     0.000000199
    -0.001266741
    -0.001693188
    -0.002808146
    -0.001074453
    -0.000168709
     0.000145232
    -0.000005631
    -0.000000002
    -0.001284208
    -0.002007786
    -0.000282827
     0.000803378
    -0.000000049
    -0.001068559
    -0.002131982
     0.000424787
    -0.002018619
     0.000000131
    -0.000028203
     0.000360897
    -0.000752571
    -0.000057955
     0.000654461
     0.000000014
    -0.000059024
    -0.000352243
    -0.000099206
     0.000847391
     0.000447950
    -0.000000014
     0.000809275
    -0.001026235
     0.000587216
     0.000254121
    -0.001430858
    -0.000000000
     0.000031850
     0.000253586
    -0.000267456
    -0.000215223
    -0.000000004
    -0.000132486
    -0.000180049
     0.000394928
     0.000452608
     0.000586085
     0.000654349
    -0.000114063
    -0.000146621
    -0.000001182
    -0.000000535
    -0.000059857
    -0.000007315
    -0.000000734
    -0.000128862
     0.000042322
    -0.000146548
    -0.000138922
    -0.000209753
    -0.000097331
     0.000738109
    -0.000000977
    -0.000304297
    -0.000815982
     0.000764158
     0.000783723
     0.000730476
     0.001616538
     0.002074697
     0.001339168
     0.001323026
     0.001608029
     0.001498141
     0.001538928
     0.001306859
     0.000945273
     0.001580652
     0.001581815
     0.001377412
     0.001798695
     0.001603434
     0.001577330
     0.001342467
    -0.000004277
     0.001802551
     0.001537547
    -0.000007582
     0.001464777
    -0.000000264
     0.000224289
    -0.000000047
     0.001716207
     0.000020839
     0.001409862
    -0.000015686
    -0.000002608
     0.001285367
     0.001780212
     0.001454044
    -0.000000523
     0.000001483
     0.001857178
     0.001861439
     0.001353043
    -0.000000070
     0.001847761
     0.000050643
     0.001823795
     0.001402696
     0.000112752
     0.001980974
     0.001948865
    -0.000000085
     0.001368045
    -0.000000100
     0.000053011
     0.001622444
     0.001962253
     0.001604641
     0.001171960
     0.001527404
     0.001736749
     0.001558195
     0.001690759
     0.001572972
     0.000074218
    -0.000000050
     0.001616152
     0.000718102
     0.000789216
     0.000745254
     0.001303083
     0.000418113
     0.002111182
     0.001740366
    -0.000000001
     0.001323685
     0.001564416
     0.001521630
     0.001563495
     0.001386609
     0.001528567
     0.001564961
     0.000426011
     0.001264379
     0.001491784
     0.001503838
     0.001753346
     0.001422382
    -0.000000523
     0.002055589
     0.001737206
     0.000050815
     0.001369743
    -0.000009239
     0.001670592
    -0.000000001
     0.000662110
    -0.000003543
     0.001475732
     0.001837859
     0.001529854
    -0.000001869
    -0.000011538
     0.001353595
     0.001775564
     0.001871419
    -0.000011452
    -0.000002261
     0.001402092
     0.001571402
     0.000410603
     0.001812004
    -0.000000002
     0.001309464
     0.001871671
     0.001897188
     0.000810030
     0.001598033
    -0.000003669
    -0.000001918
     0.001523979
     0.002200417
     0.001515306
     0.000393805
    -0.000000001
     0.001482379
     0.001903634
     0.001610416
     0.001690361
     0.001652154
    -0.000000181
     0.000038180
    -0.000436256
    -0.000681345
    -0.001535399
     0.000000048
    -0.002501960
    -0.000004170
    -0.000776116
    -0.000037740
    -0.000449414
    -0.000005262
    -0.000005481
     0.000621024
    -0.001668251
    -0.001014688
    -0.000000241
     0.000889941
    -0.000495149
     0.001082580
    -0.001248999
    -0.000000000
    -0.000284787
    -0.000101363
    -0.000172012
    -0.001815439
    -0.000000003
    -0.000009462
    -0.000000090
    -0.000001992
    -0.000199774
    -0.000107733
    -0.000000001
    -0.000124991
    -0.000147194
    -0.000229944
    -0.001776629
    -0.000053106
     0.000455791
    -0.001703285
    -0.000058291
    -0.000158537
    -0.000000439
    -0.000586005
    -0.001074112
    -0.000710699
     0.000000001
    -0.000000007
     0.000109572
    -0.000201355
     0.000000013
    -0.000000003
    -0.000000030
    -0.000000002
    -0.000046268
    -0.001623081
    -0.002279340
    -0.000938943
     0.000004756
    -0.000037948
     0.000457660
    -0.000458212
     0.000081841
    -0.000013088
     0.000188510
    -0.000004440
    -0.000000001
    -0.001000113
    -0.000143780
    -0.000001222
    -0.000849750
    -0.000000662
    -0.000659833
    -0.000000002
    -0.000012850
    -0.000858650
    -0.000538581
     0.001143580
     0.000570050
    -0.000451537
    -0.000000004
    -0.000000001
    -0.001914614
     0.000577119
    -0.000047274
    -0.000964694
    -0.000297324
    -0.000000004
    -0.002115119
    -0.000000239
    -0.000000013
    -0.000639122
    -0.000279761
    -0.000463172
    -0.001660310
    -0.000581595
    -0.001383062
    -0.000000080
    -0.000203136
    -0.000261196
    -0.000636060
     0.000152797
    -0.000266750
    -0.000094892
    -0.000327453
    -0.000159451
    -0.000081749
    -0.000153743
    -0.002966218
     0.000847708
    -0.000000045
    -0.000061895
    -0.001927866
    -0.000366450
    -0.000000094
    -0.001860123
    -0.001022961
    -0.000000017
    -0.000000001
    -0.000000013
    -0.001552360
    -0.000682145
    -0.001561091
    -0.000000363
    -0.001239684
    -0.000823173
    -0.000671781
    -0.001150402
    -0.000587832
     0.000000119
    -0.000603390
    -0.000000000
    -0.000241239
     0.000184645
    -0.000000122
     0.001022593
     0.000019972
    -0.000073320
    -0.000000339
    -0.000105299
    -0.000011535
    -0.000000006
    -0.000020395
    -0.000222539
     0.000209772
    -0.000205383
    -0.000000005
    -0.000008678
     0.000189575
    -0.000207049
     0.000510755
    -0.000150161
    -0.000003953
    -0.000000279
    -0.000146587
    -0.000255434
    -0.000007141
     0.000251038
    -0.000014134
    -0.000055917
    -0.000000021
    -0.000437067
     0.000726489
     0.000573942
     0.000516534
     0.002304713
     0.000621715
     0.001772671
     0.002078041
    -0.000000480
     0.001725514
     0.000342930
     0.000263097
    -0.000011112
     0.001985145
    -0.000096714
     0.001610533
    -0.000149019
    -0.000000019
     0.001500325
     0.001652658
     0.001386186
     0.001555049
     0.001992088
     0.002364479
     0.001789029
     0.002604037
     0.002293042
     0.002157014
     0.001784791
     0.001983923
     0.001835009
    -0.000000004
     0.002028047
    -0.000370682
    -0.000079090
     0.001785667
    -0.000005573
     0.001893069
    -0.000053109
     0.000968546
     0.002387464
    -0.000000908
     0.001882111
    -0.000000092
     0.000740067
     0.001914270
     0.002275901
     0.001607310
     0.002047865
     0.002040814
     0.000468518
     0.001695308
     0.002202618
     0.000747603
     0.001920766
    -0.000000002
     0.002051323
     0.001733051
    -0.000000133
     0.001962899
    -0.000000303
     0.000776814
     0.000966480
     0.000583220
     0.000793664
     0.000753579
     0.002190988
     0.001457603
    -0.000000001
     0.000576521
     0.001787828
     0.001722044
    -0.000005664
     0.001659148
     0.000381592
    -0.000000896
    -0.000000018
     0.001501147
     0.000759314
     0.001555302
     0.000044098
     0.001268870
     0.001101712
     0.001354719
     0.001191834
     0.002205254
     0.001396110
     0.001955068
     0.001524889
     0.001769518
     0.001505147
     0.001851007
     0.001874891
     0.000458652
     0.001808834
     0.001081041
     0.001206959
    -0.000000003
     0.002117034
     0.001656557
    -0.000007214
    -0.000006015
     0.001311103
     0.000850354
     0.001555406
    -0.000011981
    -0.000002000
     0.001793123
     0.001722431
     0.001284273
     0.001917472
     0.001507801
     0.000376539
     0.001570084
    -0.000000009
     0.001830207
     0.001316970
     0.001788517
     0.000632813
     0.001426474
     0.001688896
     0.000016164
     0.001920056
    -0.000000252
    -0.000000002
     0.001849464
     0.000422149
    -0.000269156
     0.000286631
    -0.000463809
    -0.000196556
    -0.000007221
    -0.000008345
    -0.000398037
    -0.001563291
    -0.001045920
     0.000264400
    -0.001084415
     0.000473691
    -0.000312834
    -0.002030816
    -0.001902152
    -0.000329085
    -0.000954882
    -0.000500407
     0.000181970
    -0.000000148
    -0.000314321
     0.000509122
     0.000798140
     0.000013879
    -0.000614993
    -0.001231924
    -0.000004186
    -0.000394437
    -0.000522649
     0.000528002
    -0.000074025
    -0.001351704
    -0.000000439
    -0.000000074
    -0.001308951
    -0.002394066
    -0.001463265
    -0.000600272
    -0.001094767
    -0.001065648
    -0.000555362
    -0.001400321
    -0.000191694
     0.000115033
    -0.001961620
    -0.000000036
    -0.000006998
    -0.001519598
    -0.002127163
    -0.000780386
     0.000052859
    -0.001905597
    -0.000701012
     0.000545500
    -0.000467443
    -0.000274453
    -0.000000002
    -0.000458937
    -0.001439731
    -0.002877124
     0.000401652
    -0.000951459
    -0.000895569
    -0.001248927
    -0.001346666
    -0.000000304
    -0.000614374
    -0.000201628
    -0.000642499
     0.000690861
     0.000005043
    -0.000000002
     0.000230465
     0.000667400
    -0.000308849
    -0.000626768
    -0.000708610
    -0.000826390
    -0.000980921
    -0.000265994
    -0.001854304
    -0.001942754
    -0.001293149
    -0.000300512
    -0.001144830
     0.000467366
     0.000592937
    -0.000772966
     0.000853320
     0.000014788
     0.000535810
    -0.000716588
    -0.001004586
    -0.000948299
    -0.002144369
     0.000000947
     0.000017555
    -0.001836185
    -0.000000029
     0.000492185
    -0.001055814
    -0.002710388
    -0.002148653
     0.000982707
     0.000000042
    -0.001123206
    -0.000901591
    -0.000050772
    -0.000810894
     0.000806173
     0.000422932
    -0.000278074
     0.000000297
     0.000189193
     0.000029021
    -0.000635442
    -0.001327884
    -0.001270916
    -0.001408594
    -0.000398372
    -0.001388443
    -0.000581979
    -0.001876455
    -0.000019905
    -0.000543070
     0.000027278
     0.000000589
     0.000150959
    -0.000766579
    -0.000000001
    -0.000487574
    -0.000000635
    -0.000047431
     0.000481260
    -0.000717704
    -0.002514241
    -0.000220448
    -0.002336145
     0.000967294
    -0.001819844
    -0.000157318
     0.000244614
     0.000007449
     0.000122024
    -0.000619196
     0.000012355
     0.000472757
    -0.000375789
     0.000533571
    -0.000031779
    -0.000641825
     0.000995318
    -0.000000006
    -0.000228375
     0.000004035
    -0.001726228
    -0.001727864
    -0.001349231
    -0.000181294
     0.000403804
     0.000159750
    -0.001042002
    -0.002292523
    -0.000000090
    -0.001310577
    -0.000000000
    -0.000000005
     0.000454681
     0.000115498
    -0.002294892
     0.000326996
    -0.000000021
     0.000327471
    -0.001682672
    -0.002594303
    -0.000005043
    -0.001576760
    -0.002194389
    -0.000542140
    -0.000000107
    -0.000000014
     0.000527430
    -0.000403240
    -0.000233001
     0.000597547
    -0.001989562
    -0.002145538
    -0.000853075
    -0.000314907
    -0.000540082
     0.000460816
    -0.000000000
     0.000738975
     0.000091705
    -0.000618458
    -0.000083931
     0.000002484
    -0.000039752
    -0.000334419
    -0.000001370
    -0.001613916
    -0.002180476
    -0.000000001
    -0.001887774
    -0.001425388
     0.000545784
    -0.002121452
     0.000008635
     0.000688701
     0.000412499
    -0.000703713
    -0.001929568
    -0.001640829
     0.000029598
    -0.000029916
     0.000152322
     0.000128626
     0.000725874
     0.000536017
     0.000107110
     0.001506214
     0.001604960
     0.002026284
     0.001449961
    -0.000001846
     0.000009644
    -0.000000022
    -0.000005089
     0.001147687
     0.001560752
     0.001230462
     0.001080366
     0.001186374
     0.001035315
     0.000010750
     0.001472756
     0.000218265
    -0.000000012
     0.001437903
     0.001992193
     0.001403673
     0.002068416
     0.001338985
    -0.000000409
    -0.000000052
     0.001553709
     0.000053565
     0.000019085
     0.001775416
     0.001891129
     0.001681595
     0.001721793
     0.001500826
     0.000181314
     0.001657010
    -0.000000018
     0.001911512
     0.001663773
     0.001734471
     0.001357461
     0.001631486
     0.001245781
    -0.000000001
     0.000003737
     0.001641598
    -0.000001317
     0.000447568
     0.001522853
     0.001686697
     0.001222248
    -0.000000001
     0.000557171
     0.001487787
    -0.000015688
    -0.000001677
     0.001380874
     0.000854358
     0.001640525
     0.001640781
     0.001790382
     0.001512907
     0.001380258
     0.000710239
     0.000650860
     0.000791587
     0.002010882
     0.001270499
     0.000006416
    -0.000000295
     0.001860990
     0.001618810
     0.001411546
     0.000227204
     0.001376376
    -0.000000001
     0.001397318
     0.001160614
     0.001567106
     0.001324073
     0.001278898
     0.001478193
     0.001419729
     0.001184561
     0.001540041
     0.001286950
    -0.000000170
     0.000062153
     0.001509400
     0.000034760
     0.001481811
     0.001828317
     0.001178334
    -0.000000297
     0.001713148
     0.001387787
    -0.000000007
     0.000320006
     0.001955247
     0.001927232
     0.001406743
    -0.000000000
     0.000886745
     0.000442893
     0.001824278
     0.001233727
     0.001628392
     0.001634948
    -0.000000031
     0.001318647
     0.001354925
     0.001699889
    -0.000001957
     0.002040167
     0.001345314
    -0.000000321
     0.001419367
     0.000004973
     0.000058042
     0.001689641
    -0.000000099
     0.001606011
     0.001208185
     0.001607057
    -0.000004448
    -0.000004855
     0.001447971
     0.001958306
    -0.000098545
    -0.000666148
    -0.000054569
     0.000166644
    -0.002400365
    -0.000011329
    -0.000013683
    -0.000749094
    -0.000244636
    -0.000008140
    -0.000062930
    -0.002284013
    -0.000000260
    -0.001257929
    -0.001319392
    -0.001331444
    -0.001477812
    -0.001867901
    -0.000308742
    -0.001059188
    -0.001536787
    -0.000079045
    -0.000023559
    -0.000000505
    -0.002376408
    -0.001411645
    -0.000413146
    -0.001939163
     0.000131166
    -0.000000005
    -0.002279672
    -0.001118328
    -0.000000117
    -0.002112167
    -0.000000302
    -0.001137000
    -0.000318157
    -0.000458687
    -0.002624524
     0.000102810
    -0.001527130
    -0.000000005
    -0.000190787
    -0.000091006
    -0.002575630
    -0.000000124
    -0.001187279
    -0.000018194
    -0.000812191
    -0.002093749
    -0.000214531
    -0.001023687
    -0.001954547
    -0.000636468
    -0.002189077
    -0.000097356
    -0.002471990
    -0.000000181
    -0.002812419
    -0.001059483
     0.000025338
    -0.000611942
     0.000043474
    -0.000446817
    -0.000308003
    -0.000010785
    -0.001727023
    -0.001710820
    -0.000000010
    -0.001518940
    -0.001506127
    -0.000041760
     0.000002077
    -0.000732812
    -0.000572526
    -0.000092629
    -0.001544517
    -0.000016408
    -0.001013538
    -0.000926587
    -0.000538160
    -0.002062596
    -0.002069915
    -0.000001505
    -0.001540471
    -0.001572720
    -0.000113001
    -0.000025337
    -0.001690389
    -0.001194796
    -0.001379696
    -0.001727286
    -0.000721061
    -0.001978166
    -0.000246705
    -0.001437737
    -0.001322478
    -0.000016677
    -0.002242300
    -0.001453488
    -0.001565627
    -0.002379448
    -0.000810291
    -0.001634605
    -0.000000000
    -0.000564118
    -0.000000000
    -0.001977443
    -0.001861596
    -0.000710993
    -0.000232057
    -0.000001776
    -0.001262490
    -0.000003741
    -0.001482669
    -0.000614005
    -0.000130542
    -0.000877441
    -0.002186335
    -0.001383187
    -0.001529824
    -0.000024638
    -0.001661621
    -0.001610298
    -0.001585672
    -0.000048300
    -0.000737284
    -0.001584597
    -0.000007499
    -0.000000034
    -0.001968679
    -0.001695123
    -0.000772509
    -0.002000206
    -0.001892612
    -0.000009424
    -0.001433655
    -0.002212509
    -0.001057499
    -0.001904462
    -0.000021945
    -0.000495895
    -0.000373177
    -0.002485141
     0.000125789
    -0.001368903
    -0.001403578
    -0.002622549
    -0.001315020
    -0.000348750
    -0.002171554
     0.000155173
    -0.002302719
    -0.000000303
    -0.001322773
    -0.002102280
    -0.001054301
    -0.000000674
    -0.001271961
    -0.001120488
    -0.000980782
    -0.000386185
    -0.001584308
    -0.001437974
    -0.002009211
    -0.000463461
    -0.001716282
     0.000141825
    -0.000864344
    -0.001458541
    -0.001493383
    -0.002039070
    -0.002230993
    -0.000949003
    -0.001011463
    -0.000000001
    -0.001850649
    -0.001430161
    -0.001144198
    -0.000077915
    -0.001889794
    -0.001809824
    -0.000997913
    -0.001831714
    -0.001897641
    -0.000000002
    -0.002165270
    -0.001750079
    -0.000499424
     0.000113432
    -0.001734635
    -0.000936699
     0.000419798
    -0.000007740
     0.000417138
     0.000962617
    -0.000002319
     0.000855669
    -0.000037864
    -0.000001516
    -0.000030527
     0.000768086
     0.000987404
     0.000739704
     0.000968080
     0.000112851
    -0.000000102
     0.000856837
    -0.000048655
    -0.000000082
    -0.000044653
     0.000772383
     0.000745556
     0.000988125
     0.000972905
     0.001181519
     0.001061555
     0.000785438
     0.001113283
     0.000750495
    -0.000007791
     0.000709616
    -0.000019895
    -0.000005344
    -0.000015347
     0.001179597
     0.000824908
     0.001054587
     0.001119901
     0.000866368
     0.000759443
     0.000793914
     0.001005446
     0.001215196
    -0.000000729
     0.001086065
    -0.000052211
    -0.000000505
    -0.000045066
     0.000869125
     0.000798502
     0.000681636
     0.000968386
     0.000769329
     0.001115125
     0.001146726
     0.001074263
     0.000730412
     0.000783502
     0.000733804
     0.000695729
     0.001144596
     0.001064710
     0.000786408
     0.001112727
    -0.000367432
     0.000318750
    -0.000236516
     0.000833594
    -0.000000094
    -0.000000001
     0.000798276
     0.000740295
     0.000311527
    -0.000006073
    -0.000000079
    -0.001528025
    -0.000000126
    -0.000126784
    -0.000190722
     0.000681512
     0.000886320
     0.000157204
    -0.000723817
    -0.000362244
     0.000409324
     0.000786632
    -0.000003559
    -0.000386675
     0.000929221
     0.000952839
    -0.000499755
    -0.000541512
    -0.000070792
     0.000512316
    -0.000046910
    -0.000001016
     0.000880000
     0.000595072
    -0.000272934
    -0.000143219
    -0.000264866
    -0.000231347
     0.000980152
    -0.000360189
    -0.000237894
     0.000387542
    -0.000000001
     0.000864735
    -0.000490238
    -0.000000131
     0.000337412
     0.000142908
     0.000827875
     0.000815305
    -0.000000062
    -0.000101706
    -0.000558559
     0.000537710
    -0.000000072
     0.000021878
    -0.000275707
     0.001003015
     0.000210855
    -0.000000530
    -0.000111308
     0.000596781
     0.000063857
    -0.000491663
    -0.000003384
    -0.000203963
    -0.000032972
     0.000934935
     0.000759659
    -0.000002301
    -0.000012264
     0.000916307
    -0.000079341
     0.000876652
     0.000596257
    -0.000001544
     0.000521171
    -0.002155468
    -0.000000525
     0.000009727
    -0.000771266
    -0.000019936
     0.000848729
    -0.000451595
    -0.000068530
    -0.000001090
    -0.000000027
    -0.000186230
    -0.000211091
    -0.000000339
    -0.000516812
     0.000258235
    -0.000000015
    -0.000597058
    -0.000648022
    -0.000804253
    -0.000001935
    -0.000002623
    -0.000022777
    -0.001121820
    -0.000523549
    -0.000012305
    -0.000000002
    -0.000820198
    -0.000092343
    -0.000448687
    -0.000002458
    -0.000207157
    -0.000502302
    -0.000000022
    -0.000000421
    -0.000000005
    -0.000671726
    -0.000526193
     0.000247785
    -0.000000244
     0.000131314
    -0.000001080
