#
# Number of atoms
#
 68
#
# The current total energy in Eh
#
  -3487.802667480540
#
# The current gradient in Eh/bohr
#
       0.000001179103
      -0.000004072151
      -0.000012742117
       0.000001387862
       0.000007568010
       0.000009262287
       0.000005381043
       0.000012442966
      -0.000004407895
      -0.000000932593
      -0.000003000648
       0.000002024529
      -0.000004942570
       0.000000066055
      -0.000005204451
       0.000002089740
      -0.000000219791
      -0.000005751267
       0.000001448728
       0.000002240666
       0.000001171334
      -0.000002333614
      -0.000004715270
       0.000003513257
       0.000001231469
      -0.000001682955
       0.000001209375
       0.000000220887
       0.000000335703
       0.000009183616
       0.000003056815
       0.000000713586
      -0.000003080356
       0.000002372469
       0.000003335305
       0.000003191935
       0.000001096514
       0.000000016738
      -0.000000513663
       0.000000457550
      -0.000001554311
      -0.000002697416
       0.000001048273
      -0.000002267167
      -0.000003527411
       0.000001041381
       0.000003599957
      -0.000003572385
      -0.000000411960
      -0.000000388431
       0.000002120098
      -0.000000676396
       0.000004558320
       0.000002721124
      -0.000001044504
      -0.000002313269
       0.000007334660
       0.000000479432
       0.000001453469
       0.000005601182
      -0.000002553596
       0.000002748212
       0.000000428197
      -0.000002422299
       0.000003111474
      -0.000003545856
      -0.000001262908
       0.000001337983
       0.000001362413
       0.000001004824
      -0.000006423675
      -0.000002435822
      -0.000004740300
      -0.000000232673
       0.000001472465
       0.000004056546
       0.000000267046
       0.000000834644
      -0.000000080392
      -0.000000153954
       0.000006400507
       0.000000232268
      -0.000005254184
       0.000000861798
      -0.000003094955
       0.000001002619
      -0.000000044913
      -0.000002212350
       0.000002658539
      -0.000005801040
      -0.000001165703
      -0.000003613332
       0.000004079069
      -0.000004794382
      -0.000003967421
      -0.000002649488
       0.000002081613
       0.000003211934
       0.000002955464
       0.000007195342
       0.000003741145
       0.000002217006
       0.000003090784
       0.000000805323
      -0.000002395586
       0.000002884463
       0.000004770010
      -0.000000445903
      -0.000001832629
       0.000005295422
       0.000003054480
      -0.000003435461
       0.000005296979
      -0.000002608495
       0.000004570375
       0.000005429401
       0.000003716584
       0.000000332358
      -0.000005046828
      -0.000001746561
      -0.000002503474
      -0.000003106620
       0.000006302966
      -0.000003826434
      -0.000006909814
      -0.000004945597
       0.000001863136
      -0.000006101575
       0.000000640526
      -0.000000212910
      -0.000007850340
      -0.000006024772
       0.000001476029
      -0.000001644891
       0.000008049669
       0.000003041644
       0.000003276772
       0.000000811006
      -0.000002316971
       0.000000483926
       0.000004088240
      -0.000000915622
       0.000000419020
      -0.000008189131
      -0.000000948422
      -0.000002471196
       0.000002682109
       0.000000215416
       0.000001157218
       0.000003258800
       0.000001856652
       0.000003066671
      -0.000002257998
       0.000000109861
      -0.000000374920
      -0.000001420297
      -0.000001639233
      -0.000001083410
       0.000000425641
      -0.000001599748
      -0.000003698066
      -0.000001603138
       0.000000079488
       0.000001702473
      -0.000003214806
       0.000000569770
       0.000002006627
      -0.000001385303
       0.000000889007
       0.000000911800
       0.000005457675
       0.000000543558
       0.000001037650
       0.000000711026
       0.000001871936
       0.000003492404
      -0.000000932760
       0.000002054443
       0.000003312455
       0.000001713953
      -0.000000945256
      -0.000006427271
      -0.000002016372
      -0.000002926210
       0.000001751245
       0.000007540876
      -0.000004014627
      -0.000004642721
      -0.000003260305
      -0.000000187988
      -0.000002891192
      -0.000004795118
      -0.000001749663
      -0.000002019220
      -0.000008485253
      -0.000000675788
      -0.000003678702
      -0.000002131989
      -0.000003647715
      -0.000003444422
      -0.000002234904
       0.000003535791
       0.000002625264
      -0.000000330095
#
# The atomic numbers and current coordinates in Bohr
#
  40     0.1575622    3.7269719    2.2199325 
  40    -0.0850517   -4.5904061   -2.1295422 
  40     2.8113429   -2.5792032    3.2374628 
  40    -2.8893887    1.8896063   -3.1344909 
  40     3.3138526    0.7237438   -2.7499782 
  40    -3.5216491   -1.4440455    2.9821660 
   8    -2.9596866    1.5963637    0.7026767 
   8     3.1427248   -2.4010747   -0.5807716 
   8    -0.7631079   -3.7577931    1.5325829 
   8     0.6777293    3.3022194   -1.6712116 
   8    -0.2320986   -0.9411400   -3.4387211 
   8     0.1739953    0.1794059    3.7192886 
   8    -2.4398989    4.6462424    5.2718283 
   8    -1.9889895    7.0194748    0.8992918 
   8     2.7696722    3.8836077    5.5838549 
   8     3.3911781    6.5597467    1.4446848 
   8    -3.1746138   -7.2065401   -1.0073738 
   8    -2.9603249   -4.6209493   -5.0934451 
   8     2.0911009   -7.8149684   -0.8080375 
   8     2.5111381   -5.3174307   -5.2479102 
   8     1.2030804   -4.2456734    6.6554935 
   8     4.5393794    0.0416511    5.9045690 
   8     3.6752949   -6.6163384    2.9046426 
   8     7.0554005   -2.6609356    2.6386864 
   8    -6.8562003    1.1638408   -2.2097365 
   8    -4.0000443    5.8025701   -2.6041719 
   8    -4.4358231   -0.7581169   -5.9849037 
   8    -1.4180358    3.5470008   -6.5839294 
   8     2.6884385    2.6175912   -6.4170560 
   8     4.6753714    2.6858287    0.7559010 
   8     4.9464609   -1.9044878   -5.5449935 
   8     7.9767973   -0.9219014   -1.0699995 
   8    -7.3683284   -0.2952658    1.7297503 
   8    -4.6489325    1.1347889    5.9917289 
   8    -5.5195338   -4.7516987    1.5059062 
   8    -2.9608645   -3.6600029    6.4141853 
   6    -4.0190865    3.3598647    6.4596126 
   6    -3.3590859    7.3977890   -0.9777274 
   6     4.0165774    2.2188980    6.6863095 
   6     5.0724933    5.0788114    0.8359348 
   6    -4.9251255   -6.8243585    0.5129224 
   6    -4.0506406   -3.0283196   -6.4684515 
   6     3.2799258   -8.1913336    1.1970421 
   6     4.3173899   -4.0994069   -6.1559008 
   6    -1.0047812   -4.4856982    7.4475580 
   6     8.5479463   -2.0658556    0.9541464 
   6    -8.1138091    0.7474197   -0.2431308 
   6     0.7961763    3.6105517   -7.4088862 
   1    -4.7797335   -3.7304751   -8.2803228 
   1     4.0535680  -10.0946701    1.4789061 
   1     4.7897754    2.7232590    8.5466506 
   1    -4.0926663    9.3214130   -1.2276013 
   1     5.4544810   -5.0198165   -7.6237096 
   1     1.0968916    4.6324114   -9.1883225 
   1     6.9656584    5.7653576    0.3425131 
   1    10.5487199   -2.5539714    1.2213221 
   1    -6.1026145   -8.4580660    1.0149521 
   1   -10.1027738    1.3404797   -0.2852721 
   1    -4.9478200    4.2761867    8.0711473 
   1    -1.2535362   -5.5216924    9.2267807 
  13    11.0936554   -1.3245021   -7.9287577 
  13     9.5225939    0.8427196   -3.7221745 
   1     9.8003761    1.4408839   -7.1151787 
   1     6.8828488    2.5179614   -3.9342874 
   1    10.7635157   -2.0859903   -4.8285386 
   1    14.0009483   -0.9755623   -8.4842865 
   1     9.2584477   -3.0412354   -9.5465324 
   1    11.8344694    2.3860234   -2.6280103 
