#
# Number of atoms
#
 68
#
# The current total energy in Eh
#
  -3488.547128943858
#
# The current gradient in Eh/bohr
#
       0.000007090070
       0.000044742502
       0.000020990323
      -0.000055385497
       0.000072422305
       0.000019970228
       0.000092258858
       0.000232929861
       0.000018458906
      -0.000179438184
       0.000032251381
      -0.000009787038
      -0.000052438698
      -0.000174926878
      -0.000096531259
       0.000047639914
      -0.000001566771
      -0.000111078039
       0.000023170972
       0.000047901121
       0.000036099821
      -0.000067806804
       0.000065744882
       0.000030703512
      -0.000045418784
      -0.000029930045
      -0.000056365082
      -0.000033850103
       0.000010743612
       0.000063309800
       0.000094820541
       0.000025496195
       0.000005994917
       0.000070333958
      -0.000033939459
      -0.000022173300
      -0.000001775587
      -0.000064965497
      -0.000000874352
       0.000011733102
      -0.000066072377
       0.000019284870
      -0.000044662684
      -0.000105017882
      -0.000038620290
       0.000055705635
      -0.000000059263
      -0.000067884059
       0.000003445761
       0.000010658053
      -0.000041568811
       0.000014164686
       0.000062140724
       0.000052157194
       0.000041330540
      -0.000016931343
       0.000004163595
       0.000006534283
      -0.000042762253
       0.000023938810
      -0.000023919060
       0.000060416620
       0.000009673123
      -0.000000559500
      -0.000056036897
      -0.000051843781
       0.000006486990
      -0.000055576577
      -0.000001945989
      -0.000197778281
      -0.000027021180
      -0.000070755647
       0.000071497473
      -0.000033961573
       0.000041778028
       0.000052207368
      -0.000051090295
       0.000039685834
       0.000015809017
       0.000035531266
       0.000014531087
       0.000074023168
      -0.000070363614
       0.000069637471
      -0.000022052191
      -0.000015092645
       0.000062489478
       0.000007071627
      -0.000029028005
      -0.000046828332
      -0.000018201004
      -0.000004320745
       0.000053015071
      -0.000033713819
      -0.000115324219
       0.000239328431
      -0.000020516914
      -0.000068210280
       0.000010233756
       0.000002248185
      -0.000031100701
       0.000013524114
       0.000016851468
       0.000024339624
      -0.000001316687
      -0.000010426112
       0.000063349224
       0.000024457675
      -0.000012361889
       0.000054997314
       0.000013438015
      -0.000032963220
       0.000069090356
      -0.000025740816
      -0.000018973670
       0.000153901449
       0.000082311476
      -0.000015783888
       0.000040059450
       0.000024128346
      -0.000021279909
      -0.000026946485
       0.000014972112
      -0.000018718127
      -0.000065775373
      -0.000037092514
      -0.000000785064
       0.000034221224
       0.000022187956
       0.000050767537
       0.000032134159
      -0.000073817248
       0.000045387183
      -0.000049663763
       0.000017601804
       0.000200669296
       0.000013309513
      -0.000005343379
      -0.000023882588
       0.000017206393
       0.000009311595
      -0.000002910468
       0.000072787358
      -0.000106466852
      -0.000004882720
       0.000012897372
       0.000002580962
      -0.000001776349
      -0.000007930574
      -0.000009838284
       0.000009711960
      -0.000048979882
       0.000001781347
       0.000007569378
      -0.000001093735
       0.000000930871
      -0.000026347843
      -0.000012195251
      -0.000004457273
      -0.000006837952
      -0.000001425407
       0.000004882535
       0.000009167161
      -0.000010837664
      -0.000000527530
       0.000002997659
       0.000019719228
      -0.000018024320
       0.000004531563
       0.000002187914
       0.000005150339
       0.000004092839
       0.000013266581
       0.000000571662
      -0.000006608584
      -0.000001266706
      -0.000005847113
      -0.000006658193
      -0.000009407757
      -0.000008082133
       0.000000188345
       0.000044102376
      -0.000030121522
      -0.000172617929
      -0.000056088521
      -0.000143420183
       0.000016231074
       0.000061485361
       0.000055607040
       0.000011639291
       0.000024860837
      -0.000057638030
       0.000049697373
      -0.000092026880
      -0.000067038585
      -0.000000349862
      -0.000019108100
       0.000022153876
      -0.000023269823
      -0.000013041634
       0.000027383930
       0.000077877087
       0.000054191956
       0.000032608501
#
# The atomic numbers and current coordinates in Bohr
#
  40    -0.0357728    3.8476710    2.4552865 
  40    -0.1471251   -4.5747816   -2.1960813 
  40     2.8030042   -2.6355332    3.3367818 
  40    -2.8864094    1.8950201   -3.0981513 
  40     3.6030954    0.8409408   -2.7509310 
  40    -3.6672574   -1.5285128    3.1245771 
   8    -3.1302176    1.6114793    0.8353902 
   8     3.1539822   -2.3188289   -0.5217966 
   8    -0.8235597   -3.7708690    1.5725659 
   8     0.7353915    3.2068436   -1.3802283 
   8    -0.1558152   -0.8845532   -3.5456799 
   8     0.1023399    0.1872259    3.9161133 
   8    -2.6706210    4.6666735    5.6247470 
   8    -2.3219515    7.1342382    1.1284895 
   8     2.8705340    3.9751784    5.6137602 
   8     3.1028215    6.6821219    1.5082677 
   8    -3.3003485   -7.2462927   -1.0607722 
   8    -3.1428909   -4.5324623   -5.1509613 
   8     2.0671777   -7.8864360   -0.8356506 
   8     2.4363019   -5.4459433   -5.3549144 
   8     1.2251701   -4.3190682    6.8629620 
   8     4.7274007    0.1083232    5.8564461 
   8     3.6365410   -6.7552961    2.9886570 
   8     7.1371835   -2.7900593    2.6235078 
   8    -6.9139695    0.8929116   -2.3057553 
   8    -4.1576904    5.8604972   -2.5292748 
   8    -4.3756816   -0.5703666   -6.2812338 
   8    -1.3631697    3.8729394   -6.4611112 
   8     2.8309100    3.0023511   -6.3073096 
   8     5.5147993    3.5304016   -0.0740519 
   8     4.8505454   -1.9349645   -5.7484843 
   8     7.9668880   -0.8506800   -1.1037131 
   8    -7.5855622   -0.4980418    1.7091868 
   8    -4.9453841    1.0788091    6.1794585 
   8    -5.6303472   -5.0166506    1.7851690 
   8    -3.0110876   -3.7128102    6.6657116 
   6    -4.3107932    3.3198624    6.7427435 
   6    -3.7016820    7.4636287   -0.8016891 
   6     4.2145446    2.3113809    6.6801207 
   6     5.0904067    5.8485191    0.5041305 
   6    -5.0232066   -7.0114838    0.5787546 
   6    -4.1098005   -2.9135388   -6.6546416 
   6     3.2324498   -8.3160005    1.2144188 
   6     4.1671842   -4.1376956   -6.3877185 
   6    -1.0093203   -4.5259944    7.7067362 
   6     8.5797317   -2.1662153    0.8588061 
   6    -8.2705311    0.4937800   -0.3538798 
   6     0.8866413    4.0115140   -7.2783118 
   1    -4.8344175   -3.6759094   -8.5103936 
   1     3.9906564  -10.2891111    1.4861682 
   1     5.0938545    2.8424389    8.5494752 
   1    -4.6229835    9.3743350   -1.0049551 
   1     5.2000042   -5.0253824   -8.0250025 
   1     1.1871983    5.1494653   -9.0549030 
   1     6.6499475    7.2416222    0.0860989 
   1    10.6176782   -2.7869936    0.9743576 
   1    -6.1794552   -8.7534032    1.0027546 
   1   -10.3217399    1.0618891   -0.5033501 
   1    -5.3047037    4.2089998    8.4045226 
   1    -1.2407973   -5.5344291    9.5697008 
  13    11.5825416   -1.7762775   -7.9714698 
  13     9.8406535    0.7150685   -3.8817046 
   1    10.6846768    1.2621488   -7.3690571 
   1     7.1458795    2.1954013   -4.5527991 
   1    10.7561033   -2.4251515   -4.8191907 
   1    14.6254545   -1.9968198   -8.1350621 
   1     9.6207149   -3.2742047   -9.7818070 
   1    12.1866170    2.1788396   -2.5867633 
