#
# Number of atoms
#
 80
#
# The current total energy in Eh
#
  -4219.513529483769
#
# The current gradient in Eh/bohr
#
      -0.000000397046
       0.000001630012
       0.000007371315
       0.000003601439
       0.000000340289
      -0.000006923011
       0.000001231363
      -0.000001475118
       0.000002580874
       0.000000848139
       0.000000640417
       0.000003591857
      -0.000003009113
      -0.000001636964
       0.000001273748
      -0.000002116215
       0.000009168246
       0.000007496896
       0.000001778130
      -0.000000893980
      -0.000002907844
      -0.000001992845
       0.000004083210
      -0.000001918622
      -0.000000550274
       0.000000052786
       0.000002334549
      -0.000001289980
      -0.000000168354
      -0.000002835496
       0.000003730279
       0.000000072078
      -0.000000213117
       0.000004001077
      -0.000005549795
      -0.000000728438
       0.000002964532
      -0.000003699553
      -0.000012206457
      -0.000001410467
       0.000000492557
      -0.000003373490
      -0.000002723619
      -0.000000880280
       0.000002650070
       0.000004165898
       0.000004808140
      -0.000002676900
      -0.000000318039
       0.000004544244
       0.000000763630
       0.000002297187
      -0.000000185848
       0.000001800361
       0.000000867508
       0.000004105555
       0.000002301445
      -0.000001898619
      -0.000006008106
       0.000003241386
      -0.000005732940
      -0.000002780618
      -0.000002537938
      -0.000004157643
       0.000000990470
       0.000004750000
      -0.000003296049
       0.000000333120
       0.000003231418
       0.000000528872
      -0.000007494674
       0.000004746799
      -0.000000192486
      -0.000001230533
      -0.000005591858
       0.000001036931
       0.000003281481
      -0.000000433090
       0.000005632795
      -0.000001105657
      -0.000005097371
       0.000002308167
      -0.000000050168
      -0.000002846039
       0.000005923263
       0.000000318372
      -0.000000297504
       0.000006715840
       0.000002458851
      -0.000005296598
       0.000000149735
      -0.000005632702
       0.000002919831
       0.000003998813
      -0.000003178525
       0.000005762489
       0.000005941239
      -0.000001812366
      -0.000008470149
      -0.000002300959
      -0.000003113064
      -0.000005580319
      -0.000003172495
      -0.000001366536
      -0.000003514789
      -0.000004939108
       0.000000501111
       0.000001307671
       0.000000912964
       0.000007090318
       0.000001123900
       0.000001371476
       0.000004132747
       0.000000008705
      -0.000003043560
       0.000004766188
      -0.000001056802
      -0.000003061015
      -0.000006193222
       0.000017438714
      -0.000000673190
      -0.000000846617
      -0.000001093554
      -0.000001904241
       0.000003906437
      -0.000002531567
      -0.000001501680
      -0.000004436037
       0.000000644568
       0.000007749859
       0.000007873612
       0.000000219811
       0.000001490965
      -0.000001287207
       0.000003111170
      -0.000001106907
       0.000004813978
      -0.000001600621
      -0.000002377523
       0.000000736831
       0.000000535363
       0.000001729090
       0.000000163204
       0.000002431652
       0.000004721468
       0.000000101509
      -0.000001913253
      -0.000001529499
      -0.000001133778
       0.000002666297
       0.000000656380
      -0.000003529378
       0.000002965623
       0.000002198180
       0.000001209331
      -0.000001091153
       0.000002221149
      -0.000002270711
       0.000002550366
       0.000005253926
       0.000000752074
      -0.000000085577
       0.000002937048
      -0.000000333098
       0.000001126582
       0.000000897680
      -0.000002350800
       0.000005182917
      -0.000000640217
       0.000000456879
      -0.000001311728
       0.000000250598
       0.000002618657
      -0.000003895918
      -0.000003892470
      -0.000003375677
      -0.000001102518
      -0.000005004026
      -0.000000029799
       0.000000172514
      -0.000003924149
      -0.000006990134
      -0.000000656682
       0.000007824133
       0.000001697593
       0.000000324710
      -0.000008186807
       0.000001343509
       0.000000193283
      -0.000006995660
       0.000000499741
      -0.000003743909
      -0.000003564133
      -0.000000767063
      -0.000003925068
       0.000002263998
       0.000004704100
      -0.000005569085
       0.000001353486
       0.000008924007
       0.000001929405
      -0.000004415584
       0.000001673452
      -0.000003221091
       0.000002983238
      -0.000000225449
       0.000006889158
      -0.000005911248
      -0.000000894032
      -0.000012825119
      -0.000004744439
      -0.000001690901
       0.000000115209
      -0.000001387564
      -0.000000162277
      -0.000002917413
       0.000003804004
      -0.000010815249
       0.000007948329
       0.000000364538
       0.000002352966
       0.000001164726
      -0.000001692015
       0.000001120102
       0.000000170987
      -0.000004950002
       0.000000791944
      -0.000000310826
      -0.000001173084
      -0.000006938574
      -0.000002763654
      -0.000000839991
      -0.000000252035
       0.000002993555
       0.000001735998
       0.000003622498
       0.000001807609
       0.000001575511
      -0.000000387721
       0.000003225047
#
# The atomic numbers and current coordinates in Bohr
#
  40    -0.9210154    3.6816390    2.6570860 
  40     0.3981303   -3.7702047   -2.6223508 
  40     3.1925673   -1.7994708    2.7618568 
  40    -3.7385869    1.7999370   -2.7519356 
  40     2.7829657    2.1991916   -3.0127558 
  40    -3.1886616   -2.1678661    3.1307298 
   8    -3.4290532    1.1447317    1.0144040 
   8     3.1193761   -1.1695758   -1.0331437 
   8    -0.1671349   -3.5091134    1.2044935 
   8     0.0372815    3.8663017   -0.9740362 
   8    -0.5882093   -0.1413627   -3.5436294 
   8     0.0668615    0.2220922    3.9462321 
   8    -3.2824836    3.8033553    5.9791333 
   8    -3.5343146    6.8550528    1.8055758 
   8     2.5649454    4.5206126    4.3019992 
   8     3.7220056    7.9338679    0.2258218 
   8    -2.6150416   -6.4776065   -1.7366052 
   8    -2.1575704   -4.1525376   -5.9420662 
   8     2.9911846   -6.7899376   -1.6033827 
   8     3.0776285   -3.7986564   -5.7476245 
   8     2.4009711   -3.9982827    6.1466188 
   8     4.6646588    1.0972350    5.5027965 
   8     4.8404830   -5.4800460    1.9428585 
   8     7.1132487   -0.6714093    1.7642215 
   8    -7.5659920    0.7430504   -1.5936002 
   8    -5.1636664    5.5476897   -1.8426811 
   8    -5.0466424   -1.1351272   -5.2915769 
   8    -2.9541918    3.9055064   -6.1162909 
   8     1.2146180    3.6625640   -6.6117421 
   8     4.1781059    6.1038240   -3.4980204 
   8     4.7611089    0.0498318   -5.9219742 
   8     6.3309794    2.4862093   -0.9302797 
   8    -6.9946359   -2.1068660    1.4787735 
   8    -4.9798674   -0.0253888    6.1623285 
   8    -4.2578242   -6.0756441    2.1358853 
   8    -1.7984674   -4.1367341    6.4413552 
   6    -4.6862780    2.1765901    6.9695590 
   6    -4.8854031    7.1354204   -0.1335631 
   6     4.0659597    3.3430670    5.7517451 
   6     4.2918920    7.9658101   -2.0765867 
   6    -3.6899095   -7.3041668    0.2112831 
   6    -4.0352928   -2.8836970   -6.5498741 
   6     4.4772621   -7.0432840    0.2167438 
   6     4.5843969   -2.2011213   -6.6093614 
   6     0.3850266   -4.5687399    7.2336970 
   6     7.7630187    0.9788457    0.2255646 
   6    -8.3174445   -0.6682347    0.1420840 
   6    -0.9433421    4.1991884   -7.3471646 
   1    -4.9374536   -3.3453293   -8.3599753 
   1     5.5638324   -8.8062256    0.3017279 
   1     4.8772214    4.4356203    7.3109609 
   1    -5.9082413    8.9280516   -0.3064325 
   1     5.8658305   -2.8326759   -8.1112573 
   1    -1.1330370    5.0092093   -9.2457607 
   1     4.9328893    9.7565203   -2.9116603 
   1     9.7954876    1.1697483   -0.1441205 
   1    -4.2139933   -9.3114051    0.1970298 
   1   -10.3580269   -0.6734214    0.5107043 
   1    -5.7338138    2.7436034    8.6628509 
   1     0.5427105   -5.5506980    9.0514629 
  13    -5.4937746    9.6962899    5.3934487 
  13    -7.1889837    9.7589172   10.7730141 
   1    -5.5759115   11.6100984   12.7782840 
   1   -10.0841707   10.2621951   11.2624245 
   1    -6.3280079   11.2901341    8.1292279 
   1    -5.4883592   11.8765852    3.3547119 
   1    -2.6216464    9.1561511    6.5071437 
   1    -5.9136029    7.0500281   10.7771315 
  13    -2.3621667   11.6660032   13.2639165 
   1    -1.5679784   10.7090262   10.4282741 
   1    -1.7894797   14.5672552   13.6551099 
   1    -7.5096653    7.4850453    5.4415816 
  13     0.2501490   10.2339317    7.5043205 
   1     0.8765148    9.5619818    4.1058417 
   1     1.8299866    7.9656779    8.6293774 
   1    -1.8168569    9.5574329   15.3068838 
  13     3.5030317   10.4856070    2.6515045 
   1     5.7722577   10.1634603    4.5873647 
   1     0.8823955   13.1295570    7.1545050 
   1     3.0685233   13.0169031    1.0977665 
