#
# Number of atoms
#
 80
#
# The current total energy in Eh
#
  -4220.512875148273
#
# The current gradient in Eh/bohr
#
      -0.000172757194
       0.000043545514
      -0.000053967191
       0.000066196331
       0.000012461769
      -0.000062101891
       0.000169675345
       0.000020404356
      -0.000074727821
      -0.000097951036
      -0.000022468324
      -0.000034976972
      -0.000081457011
       0.000045781543
       0.000029965982
      -0.000019556898
       0.000113615897
       0.000008631603
      -0.000036233872
      -0.000072884586
       0.000002766109
      -0.000010167388
      -0.000020068019
       0.000089771402
       0.000015743133
       0.000024580468
       0.000003965800
       0.000019782450
      -0.000042169112
      -0.000030143161
       0.000026450323
       0.000044165910
      -0.000035725783
      -0.000004362816
      -0.000084408052
       0.000031703390
       0.000025478869
       0.000049370721
       0.000079661328
       0.000023057699
       0.000006336576
      -0.000063201075
       0.000052868204
      -0.000008738610
       0.000023644376
       0.000093596494
       0.000145110258
       0.000105386645
      -0.000051784505
      -0.000046394826
       0.000020210218
       0.000002956774
       0.000009774549
       0.000018175144
      -0.000006779029
      -0.000018935125
      -0.000003550850
      -0.000035785040
       0.000014784404
       0.000030890916
      -0.000036315044
       0.000005536593
       0.000022244897
      -0.000005215138
      -0.000072103562
       0.000010522133
       0.000005608122
       0.000002242870
       0.000019376248
      -0.000048666306
       0.000004154135
      -0.000007589017
       0.000006655713
       0.000027220646
       0.000035215162
      -0.000001088276
       0.000049013674
      -0.000055153767
       0.000053701792
       0.000002891709
       0.000046766318
       0.000054119460
      -0.000035080057
      -0.000014308822
      -0.000003354657
      -0.000039050870
       0.000026070850
       0.000021158209
       0.000041083486
       0.000017010397
      -0.000032114881
       0.000007996482
       0.000021811880
       0.000003979611
      -0.000080593913
       0.000035914014
       0.000011725619
      -0.000001598939
      -0.000022574905
       0.000023073461
      -0.000033754385
       0.000001417890
      -0.000048379235
      -0.000016132547
       0.000051113604
       0.000010380964
      -0.000009739794
      -0.000033319567
      -0.000035819896
      -0.000067879550
      -0.000059817882
       0.000061781513
      -0.000000703016
       0.000124221385
      -0.000024052804
       0.000012861183
      -0.000024140648
       0.000002198951
      -0.000119115106
      -0.000113188298
       0.000047388620
       0.000047027301
      -0.000035730704
      -0.000021478380
       0.000022834756
      -0.000018385139
      -0.000014952362
       0.000018326982
       0.000002141920
       0.000042605493
       0.000003925044
      -0.000039776893
      -0.000001843889
      -0.000012926897
       0.000012327921
       0.000039603947
       0.000064308734
      -0.000045899002
      -0.000011592439
      -0.000038158581
       0.000036320942
      -0.000031823876
       0.000027102867
      -0.000036515355
       0.000015101183
      -0.000005615239
      -0.000006186108
      -0.000002893785
      -0.000002418768
      -0.000000076746
      -0.000004270072
       0.000009020134
      -0.000002790607
      -0.000019829493
      -0.000018856071
      -0.000038168703
      -0.000000074743
      -0.000001463848
       0.000004671000
       0.000010231054
       0.000000946762
       0.000001948060
      -0.000037236364
       0.000026714064
       0.000023258447
       0.000001393135
      -0.000005065456
       0.000020318626
      -0.000002693300
      -0.000001433531
       0.000003716341
      -0.000001993219
       0.000008923742
      -0.000015367253
      -0.000000103600
       0.000035590384
      -0.000009511203
       0.000005971095
      -0.000002452950
      -0.000001713471
      -0.000035317696
      -0.000148422897
      -0.000012888795
      -0.000001522719
      -0.000003912569
      -0.000076154225
      -0.000009398063
      -0.000015326466
      -0.000034865547
      -0.000025036991
       0.000022421712
       0.000027816491
       0.000034097375
      -0.000020539738
       0.000025131618
      -0.000000615835
       0.000011573161
       0.000042293782
       0.000007683929
       0.000367147666
       0.000043490638
       0.000020938000
      -0.000018499633
      -0.000001771229
       0.000072026053
       0.000025906391
       0.000006861560
      -0.000054996802
      -0.000026906659
       0.000032586651
      -0.000000523551
      -0.000014384404
      -0.000025166354
      -0.000000735314
      -0.000045371595
      -0.000000843064
      -0.000044132689
      -0.000106441763
      -0.000070187855
      -0.000025902492
      -0.000021147416
       0.000000780972
       0.000040204152
       0.000030199919
      -0.000017781838
      -0.000019527862
      -0.000009155624
       0.000023289169
       0.000012236556
      -0.000060394238
      -0.000064580887
       0.000013114213
      -0.000008239079
       0.000004670115
       0.000031625430
      -0.000005389077
       0.000069877707
      -0.000024072711
      -0.000020561365
       0.000004889054
#
# The atomic numbers and current coordinates in Bohr
#
  40    -0.1954304    4.1003077    2.4675182 
  40     0.3752652   -3.9716599   -2.7378260 
  40     3.4873926   -1.8959462    2.6216737 
  40    -3.4492015    1.9787439   -2.8224407 
  40     3.0906650    1.9619691   -3.3845027 
  40    -3.0378530   -1.7976038    3.1539378 
   8    -3.1716357    1.5455651    1.0562628 
   8     3.3670266   -1.3784890   -1.2843242 
   8    -0.0890917   -3.4381603    1.1379057 
   8     0.2280351    3.6906540   -1.3589741 
   8    -0.4034994   -0.2835574   -3.8409054 
   8     0.5013586    0.4407222    3.7501597 
   8    -2.5290918    4.2418577    5.9490060 
   8    -3.2218337    7.1034766    1.5920775 
   8     3.6762607    4.2182498    4.0627568 
   8     2.5475562    7.7599924    0.5965591 
   8    -2.6563796   -6.6829382   -1.6073424 
   8    -2.4609658   -4.3512502   -5.9390832 
   8     3.0153670   -7.0724126   -1.7046293 
   8     2.9642699   -4.2436832   -6.0593736 
   8     2.5815692   -4.2024044    6.0192357 
   8     5.1542598    0.5813819    5.7536464 
   8     5.0935222   -5.6902053    1.7748032 
   8     7.4086514   -0.5758507    1.5395851 
   8    -7.4514949    1.2522337   -1.5207002 
   8    -4.7627225    5.9095412   -2.2290826 
   8    -5.1251268   -1.0601305   -5.2016426 
   8    -2.6355942    3.9248850   -6.4526169 
   8     1.6266648    3.8359850   -6.8756377 
   8     4.3705305    6.0919181   -2.9198058 
   8     4.6737523   -0.3423336   -6.5135721 
   8     6.9949209    2.0349707   -1.8442580 
   8    -6.9973711   -1.5441000    1.7159749 
   8    -4.4889525    0.4657724    6.3697235 
   8    -4.4176443   -5.7326663    2.2006073 
   8    -1.6637660   -3.9025481    6.5173759 
   6    -3.9923906    2.7003104    7.0754841 
   6    -4.5466070    7.4287937   -0.3976772 
   6     4.8478806    2.9384668    5.7617468 
   6     3.8805951    7.8765453   -1.4431233 
   6    -3.8788479   -7.2102587    0.4008458 
   6    -4.2983758   -2.9296289   -6.4856097 
   6     4.6245984   -7.2982520    0.0607701 
   6     4.3931643   -2.6465352   -7.1281883 
   6     0.5269230   -4.6163829    7.1836869 
   6     8.2592680    0.6804447   -0.3079075 
   6    -8.2653608   -0.0526711    0.3125954 
   6    -0.5874158    4.3487882   -7.6308412 
   1    -5.3510799   -3.3705731   -8.2872689 
   1     5.7466955   -9.1082497    0.1094080 
   1     5.6799142    4.0474445    7.3785729 
   1    -5.6440874    9.2485589   -0.5204329 
   1     5.5302931   -3.3359940   -8.7926516 
   1    -0.7591582    5.2773710   -9.5407312 
   1     4.6955787    9.7890465   -1.9243602 
   1    10.3696552    0.6326180   -0.6090278 
   1    -4.5875593   -9.2150843    0.5688758 
   1   -10.3500701    0.0946999    0.7345301 
   1    -4.9259071    3.3995561    8.8545775 
   1     0.6593873   -5.7365197    8.9906074 
  13    -6.0419215    9.6115715    5.3343638 
  13    -7.6122304    9.8713241   10.9432941 
   1    -6.0475206   12.2656825   12.5311824 
   1   -10.5309806   10.0192501   11.8090989 
   1    -7.3250556   11.2363209    8.0039294 
   1    -6.1997061   11.8378441    3.2557991 
   1    -3.1628954    9.5754088    6.7541988 
   1    -5.8506211    7.3648976   11.0462497 
  13    -2.8348888   12.3745257   13.3740979 
   1    -1.6136418   11.4244999   10.5595579 
   1    -2.3210552   15.3682889   13.7006353 
   1    -7.6088436    6.9894999    5.3710766 
  13    -0.2069009    9.5264260    8.0635986 
   1     0.5379103    8.0065359    4.8208582 
   1     0.8837136    7.2059849    9.6996289 
   1    -2.3886400   10.2288070   15.5004798 
  13     2.3485697   10.3482572    3.3480560 
   1     5.2747852   10.4911235    4.2330590 
   1     1.4300719   11.9141269    6.8931504 
   1     0.6626517   12.5366632    2.0316751 
