Corrected dielectric energy   =     -0.006110323
Total C-PCM charge            =     -0.000000000
C-PCM corrected charges:
     0.000275026
    -0.000001971
    -0.000608672
     0.000444307
     0.000129679
     0.000161541
    -0.001932129
     0.000037138
    -0.000616605
    -0.000625669
    -0.001752752
    -0.000729220
    -0.000035679
    -0.001926382
    -0.001713155
    -0.000586444
     0.000005213
    -0.001148774
    -0.001751190
     0.000001415
    -0.000229795
    -0.000000323
    -0.000000074
    -0.001251959
     0.000466953
    -0.000000097
     0.000428160
    -0.000284378
     0.000147770
    -0.000000000
     0.000152326
    -0.000990794
    -0.000767950
    -0.000001590
     0.000298690
     0.000779863
    -0.000000190
    -0.001596071
     0.000540492
    -0.000518316
    -0.000367345
     0.000066378
    -0.001010936
    -0.002448651
     0.000397505
     0.000344294
    -0.000478174
    -0.000173710
    -0.002256709
     0.000039678
    -0.000000004
     0.000196268
    -0.000001612
    -0.000970320
    -0.002008215
    -0.000000440
    -0.002065507
    -0.000000007
    -0.000000829
     0.000853903
    -0.000719838
    -0.000000247
    -0.000369041
    -0.001410370
    -0.001645883
    -0.001313032
    -0.001520776
    -0.000000742
    -0.000000008
    -0.000322542
     0.000394556
    -0.000412468
     0.000347446
    -0.000000005
     0.000508118
     0.000237996
     0.000422938
    -0.000000000
     0.000207482
    -0.001379006
    -0.002110498
    -0.001241005
    -0.002272450
    -0.001265442
    -0.001911158
    -0.000710359
     0.000180945
    -0.000011074
    -0.001154346
     0.000103348
    -0.000000028
    -0.000025841
     0.000005661
    -0.000281720
     0.000001309
     0.000001345
     0.000384406
    -0.000639484
     0.000317137
    -0.000337951
     0.000238627
    -0.000886571
    -0.001602925
    -0.000000145
    -0.000697743
     0.000008096
    -0.001326676
    -0.001080373
    -0.001784980
    -0.000687987
    -0.001340072
    -0.001079313
    -0.002199528
    -0.001101071
    -0.000875306
    -0.000001046
    -0.000024926
    -0.000000012
     0.000000043
    -0.000403801
    -0.001166775
    -0.002009069
    -0.000000016
     0.000621815
     0.000055320
     0.000573038
    -0.001952056
    -0.001828859
    -0.001707302
    -0.000080998
    -0.000272962
    -0.000000016
    -0.000230873
    -0.001556837
     0.000000320
     0.000537736
    -0.001757241
     0.000584983
    -0.001668634
    -0.001092363
    -0.000297136
    -0.000226057
    -0.001506492
    -0.001783620
    -0.000000002
    -0.001930533
    -0.000863628
    -0.001281743
    -0.000872752
     0.000261728
    -0.000000997
    -0.002137222
     0.000313909
    -0.000000021
    -0.001148476
    -0.001388433
    -0.001422946
    -0.002380528
    -0.000979249
     0.000688611
    -0.000000167
    -0.001696737
    -0.000456991
     0.000553028
    -0.000162589
    -0.000000001
    -0.000000011
     0.000942983
    -0.000000011
     0.000536637
    -0.000061824
    -0.000324370
     0.000479996
    -0.001230223
     0.000449187
    -0.001663736
    -0.001685404
    -0.002497957
    -0.000006160
     0.000314820
    -0.000926693
    -0.001183080
    -0.002104136
    -0.000000233
    -0.001759977
    -0.002055856
    -0.001552578
    -0.000164881
    -0.001871085
    -0.001670432
    -0.000734009
     0.000204014
    -0.001331398
     0.000070228
    -0.000000010
    -0.000265786
    -0.002010061
    -0.000383064
    -0.002217136
    -0.001050906
    -0.000002215
    -0.000000018
    -0.000681077
    -0.000000002
    -0.003369883
    -0.001176485
    -0.000000001
    -0.000221178
    -0.000000093
     0.000828742
    -0.000187466
     0.000606926
     0.000670023
     0.000718209
    -0.001509264
     0.000059812
    -0.001510257
    -0.000000157
     0.000889987
    -0.001541735
    -0.000410935
    -0.000624075
     0.000131972
     0.000395922
     0.000666386
    -0.000860145
    -0.000358335
    -0.002183632
    -0.000005556
    -0.001058660
    -0.000003806
     0.000017539
    -0.000124621
    -0.001930162
    -0.001386229
    -0.000621598
    -0.001796277
    -0.000040124
    -0.002259902
    -0.000478690
    -0.000522900
    -0.001062687
    -0.000703804
     0.000333181
     0.000768378
    -0.000035276
    -0.001490965
    -0.000476652
    -0.002035883
    -0.000000192
    -0.000000020
     0.000017274
    -0.000577824
     0.000315627
    -0.001657566
    -0.000026156
    -0.001550894
    -0.000002116
     0.000035919
    -0.000452022
    -0.002110582
    -0.001190552
     0.000276813
    -0.000000009
     0.000378767
     0.000520218
    -0.001514669
    -0.001037914
     0.000000672
     0.000371699
    -0.001341032
    -0.000622484
    -0.002452269
    -0.000000107
    -0.000000044
     0.000419555
    -0.001084616
    -0.000639639
    -0.001717370
    -0.000000126
    -0.001952246
    -0.001845504
    -0.000016961
    -0.001352402
    -0.001568948
    -0.000000001
    -0.000761055
    -0.000857424
    -0.001121202
    -0.000973241
    -0.000010653
    -0.001116158
     0.000000929
    -0.000023412
    -0.000004986
    -0.000000000
    -0.000000003
     0.000048668
    -0.000043335
    -0.002310599
    -0.001344632
    -0.001300671
    -0.001954480
    -0.000000084
    -0.001651244
    -0.000088554
    -0.002297884
    -0.001004526
     0.000399686
    -0.001326743
     0.000365586
    -0.000000023
    -0.000351242
     0.000224379
    -0.000712944
    -0.001278814
    -0.001140984
    -0.000058143
     0.000025362
    -0.000643971
     0.000760198
    -0.001074417
    -0.000000003
     0.000001103
     0.000423172
    -0.000948366
    -0.001633332
    -0.001807192
    -0.002078729
    -0.001442543
    -0.001067593
     0.000000983
    -0.001791526
    -0.000000027
    -0.001477752
    -0.000000065
    -0.001329516
    -0.001196809
     0.000400768
    -0.000000049
     0.000000079
    -0.000675168
    -0.001546037
    -0.000902790
    -0.000412743
    -0.001733652
    -0.001250042
    -0.000179385
     0.000173795
    -0.000000002
     0.000352154
    -0.000000105
    -0.000000040
     0.000033653
    -0.000349752
     0.000297282
    -0.000991165
    -0.000000007
    -0.000287397
     0.000156668
    -0.001669715
    -0.000000567
    -0.000188437
     0.000483300
    -0.000578519
    -0.001060725
    -0.002275097
    -0.003188692
     0.000003370
     0.000309572
    -0.001008456
     0.000579546
    -0.000886865
    -0.000267226
    -0.001320011
     0.000237220
     0.000059885
    -0.000521612
    -0.000824684
    -0.001032457
    -0.000925527
    -0.000013798
    -0.000000335
     0.000430210
     0.000113054
    -0.000730312
    -0.001102696
    -0.000306759
    -0.000639246
    -0.001930376
    -0.000000020
    -0.002109025
    -0.000004535
     0.000176339
     0.000472708
    -0.000003579
    -0.000770507
    -0.001247762
    -0.001232103
    -0.001851585
    -0.001185792
    -0.000001075
    -0.000757582
     0.000110643
    -0.000000000
     0.000582977
    -0.000217867
    -0.001999129
    -0.001193673
    -0.001268592
    -0.002188054
    -0.001791190
    -0.000018729
    -0.001859815
    -0.000597228
    -0.000430204
    -0.000904127
    -0.000520493
    -0.000013154
     0.000015738
    -0.000012980
     0.000000716
    -0.000909654
     0.000329563
    -0.001763807
     0.000313723
    -0.000033985
    -0.000656514
    -0.000315956
    -0.000004049
    -0.000000844
    -0.000000001
    -0.000889873
    -0.000202637
    -0.000661483
    -0.000517160
    -0.000000383
     0.000029294
    -0.000256498
    -0.000385297
    -0.000000078
    -0.000109141
    -0.000000008
    -0.000010741
    -0.000003186
    -0.000370799
    -0.000333835
    -0.000530832
    -0.000051360
    -0.000022528
     0.000547139
    -0.000000010
    -0.000000346
     0.000585055
     0.001609626
     0.001636720
     0.001015604
     0.001218842
     0.000867848
     0.001410213
     0.000631675
     0.001222198
    -0.000000033
     0.000915528
    -0.000000325
     0.001340846
    -0.000014205
     0.000067653
     0.001086990
     0.001093923
     0.001217253
     0.001221944
     0.001638855
     0.001671710
     0.001806491
     0.001849105
     0.001456368
     0.001476187
     0.001434577
     0.001460927
    -0.000159444
     0.001903633
     0.000127796
     0.001889867
    -0.000000009
    -0.000000082
    -0.000052375
     0.001654437
    -0.000095597
     0.001590301
    -0.000001776
    -0.000004075
     0.001857372
    -0.000000005
     0.001887998
     0.000267754
     0.000633180
     0.001350509
     0.001374407
     0.001661886
     0.001666711
     0.001776860
     0.001936575
     0.001466987
     0.001485416
    -0.000014679
     0.001562516
    -0.000011679
     0.001285264
     0.001647911
     0.001451424
     0.001247616
     0.000672399
     0.001276855
    -0.000183611
    -0.000000003
     0.000064363
    -0.000000001
    -0.000000027
    -0.000090601
    -0.000241420
     0.000276133
    -0.001541066
    -0.000094295
    -0.000000001
    -0.000040350
    -0.000277054
    -0.000036032
    -0.000684541
    -0.000004352
    -0.000212093
    -0.000125732
    -0.000477612
    -0.000071061
    -0.000002372
     0.000159936
    -0.000625816
    -0.000000068
    -0.000001563
    -0.000301377
    -0.000000076
     0.000197718
    -0.000000009
    -0.000887207
     0.000665499
     0.000635846
    -0.000000010
    -0.000000156
    -0.000001283
     0.001440745
    -0.000006855
    -0.000003694
     0.001442354
    -0.000020003
    -0.000001299
     0.000962338
    -0.000003268
    -0.000004411
     0.001305305
    -0.000009742
     0.001454321
     0.001193000
     0.001446762
     0.001192626
     0.001229747
     0.001528004
     0.001232237
     0.001540399
    -0.000001405
     0.001260306
    -0.000006474
    -0.000002177
     0.001260135
    -0.000006120
     0.001690507
     0.001811634
     0.001696703
     0.001874111
     0.001490663
     0.001661579
     0.001582250
     0.001664421
    -0.000001769
     0.001696905
    -0.000008784
    -0.000005960
     0.001701607
    -0.000023619
     0.001203764
     0.001342943
     0.001298198
     0.001343257
     0.001363618
     0.001842196
     0.001365133
     0.001910256
     0.001081513
     0.001244573
     0.001262043
     0.001798379
     0.001669181
     0.001761446
     0.001703688
     0.001718386
     0.001506826
     0.001654740
     0.001647969
     0.001641863
    -0.000139167
    -0.000001206
    -0.000000001
    -0.000002160
    -0.000018408
    -0.000000009
    -0.000007000
    -0.000000001
    -0.000019473
    -0.000000370
    -0.000018444
    -0.000000505
    -0.000000064
    -0.000008795
    -0.000007636
    -0.000000001
    -0.000000015
    -0.000001043
    -0.000020877
    -0.000003474
    -0.000000001
    -0.000007984
    -0.000033371
    -0.000118315
    -0.000018640
     0.000373955
     0.000420443
     0.000470962
     0.001384366
     0.001637852
     0.001736033
     0.001545108
     0.000921463
     0.000992225
     0.001010560
     0.001080298
    -0.000016160
    -0.000003815
     0.001411889
     0.001313031
    -0.000003642
    -0.000000201
    -0.000008475
    -0.000001184
     0.001483614
    -0.000006674
     0.001369419
    -0.000000401
    -0.000018115
     0.001738576
     0.000908970
     0.000726034
    -0.000000497
     0.001344603
     0.001648257
     0.001473433
     0.001746477
     0.001308080
     0.001405858
     0.001706434
     0.001754400
     0.001142137
     0.001318267
     0.001367772
     0.001530467
    -0.000000021
     0.001526030
     0.001643965
     0.001467462
     0.000057578
    -0.000000011
     0.001566906
     0.001486725
     0.001739246
     0.000088039
     0.001410636
    -0.000023263
    -0.000000113
     0.001405186
    -0.000000549
    -0.000023970
     0.001190184
     0.001403302
     0.001582437
     0.001400411
     0.001159225
     0.001428703
     0.001507775
     0.001271711
     0.000168462
    -0.000336290
    -0.000386569
    -0.001625232
    -0.000972601
    -0.001006349
     0.000218784
     0.000464508
    -0.000091406
    -0.002062325
    -0.001306575
    -0.001723392
    -0.001052902
    -0.000234077
    -0.000001822
     0.000380428
     0.000563474
    -0.000923671
    -0.000563306
    -0.000026422
     0.000234572
    -0.001309219
    -0.001417582
    -0.000983140
    -0.000490649
     0.000448521
     0.000460714
     0.000499744
    -0.001274429
    -0.000003379
    -0.001739680
    -0.001393689
    -0.000739055
    -0.000000416
    -0.001836408
    -0.001303151
    -0.002195975
     0.000142191
     0.000268459
    -0.000000147
    -0.002001451
    -0.001671603
    -0.001713318
    -0.000414652
     0.000143484
    -0.000926023
    -0.000486758
    -0.000626327
     0.000015423
     0.000036107
    -0.001190156
    -0.000382970
    -0.000406502
    -0.000862061
    -0.000736940
    -0.000045112
    -0.002221278
    -0.000000479
    -0.000962784
    -0.000013717
    -0.000854257
    -0.000576492
    -0.000003788
    -0.000256091
     0.000017824
    -0.000010288
     0.000352019
    -0.000121110
     0.000325760
    -0.001004795
    -0.000152071
    -0.000894655
    -0.001594046
    -0.001839693
    -0.000035497
    -0.001381532
    -0.001246039
    -0.000529930
    -0.000634386
    -0.000000030
     0.000004509
     0.000008330
    -0.001858760
     0.000048892
    -0.000014969
     0.000420639
    -0.002211911
    -0.000955354
    -0.001399743
    -0.000012496
    -0.000169823
    -0.000010399
     0.000001520
     0.000428643
     0.000398429
     0.000000343
     0.000176955
    -0.002339135
    -0.000000023
    -0.002311103
    -0.001050345
    -0.000220456
    -0.001870275
    -0.001694107
    -0.000000297
     0.000000282
    -0.001940995
    -0.000000027
    -0.001394136
    -0.000510022
    -0.001018273
    -0.001387178
    -0.001517410
    -0.000039983
     0.000091282
    -0.000491675
    -0.001402568
    -0.002807243
    -0.000000483
    -0.000678790
    -0.000000052
    -0.000000022
    -0.000000093
     0.000456093
     0.000608227
    -0.000002460
    -0.000650963
    -0.000652758
     0.000351878
    -0.002473571
    -0.000033013
     0.000028371
    -0.002020981
    -0.001899795
    -0.002335407
     0.000632163
    -0.000045548
    -0.000758007
    -0.000096283
    -0.000844509
    -0.000620467
    -0.000187438
    -0.000000000
    -0.000000001
    -0.000901337
    -0.002342503
    -0.002065459
    -0.001405728
     0.000408346
     0.000718888
    -0.000193778
    -0.001419131
    -0.001827144
    -0.001341987
    -0.000949081
    -0.000710812
     0.000246259
    -0.000573545
    -0.000689826
     0.000026208
    -0.001222518
    -0.002227246
    -0.001881704
    -0.000636036
    -0.000000219
     0.000215930
     0.000437012
     0.000736552
     0.000012554
     0.000032414
    -0.000000221
    -0.002364671
    -0.002673321
    -0.000017830
    -0.000281981
    -0.000003094
    -0.000607780
    -0.000000146
     0.000373661
     0.000447798
    -0.000000001
     0.000096474
    -0.001099825
    -0.002069897
    -0.001990278
    -0.000654637
     0.000001680
    -0.000000526
     0.000032017
     0.000061894
     0.000578786
    -0.000000007
    -0.000000016
    -0.000000017
     0.000468212
    -0.000931962
    -0.001834694
    -0.001490331
    -0.001569351
    -0.000049554
    -0.000785649
    -0.000939288
     0.000001813
    -0.000020068
    -0.000965916
    -0.001194358
    -0.000000001
    -0.000000063
    -0.000000026
    -0.000736288
    -0.000413778
    -0.000000264
    -0.000515089
    -0.000009967
    -0.000000006
    -0.000001371
    -0.000345015
    -0.000622763
     0.000309284
    -0.000819865
    -0.000563413
    -0.000023212
    -0.000000511
    -0.000000110
    -0.000002196
    -0.000000001
    -0.000000307
    -0.000806279
    -0.000000002
    -0.000112913
    -0.000000010
    -0.000062058
     0.000404856
     0.000080818
    -0.000400087
    -0.000000859
    -0.000035113
    -0.001167714
    -0.000000066
    -0.000000025
     0.000466298
     0.000621950
     0.001696957
     0.001748688
     0.001456498
     0.001499073
    -0.000000061
    -0.000000050
     0.000002292
     0.000012005
     0.001439255
     0.001468460
     0.001040018
     0.001048582
     0.000935274
     0.000943761
     0.000117104
     0.000084758
    -0.000000005
    -0.000000002
     0.000948060
     0.000911282
     0.001605507
     0.001651449
     0.001462125
     0.001506608
    -0.000012176
    -0.000007154
    -0.000006261
    -0.000003206
     0.001731290
     0.001811558
     0.001740267
     0.001759954
     0.001307928
     0.001323227
     0.000235984
     0.000245456
    -0.000000004
    -0.000000002
     0.001554281
     0.001594270
     0.001446977
     0.001471002
     0.001189772
     0.001213054
     0.001288751
     0.001292576
     0.001683670
     0.001751511
     0.001274620
     0.001301704
     0.001723853
     0.001779317
     0.001038431
     0.001098524
    -0.000000018
    -0.000000008
     0.000174717
     0.000168550
     0.000779280
     0.001474065
     0.001439927
     0.001124736
     0.000508377
     0.000056212
     0.000670333
     0.001384325
     0.001698931
     0.001760256
     0.001656430
     0.001429687
     0.000042902
     0.001502355
    -0.000025699
    -0.000000062
    -0.000000001
     0.001410247
    -0.000003830
     0.000033425
     0.000953178
    -0.000000022
    -0.000001846
     0.000976271
     0.001057482
     0.001096153
     0.001181464
     0.001380277
     0.001767262
     0.001537435
     0.001959895
     0.001315807
     0.001433621
     0.001859643
     0.001935279
     0.001711503
     0.000007280
     0.001668846
    -0.000000159
    -0.000017056
    -0.000000154
     0.001501875
    -0.000000388
     0.001729696
     0.000464654
     0.000026033
     0.001559726
    -0.000000004
     0.001826692
     0.001619630
     0.000277543
     0.001176708
     0.001382742
     0.001469922
     0.001699552
     0.001611147
     0.001839288
     0.001260483
     0.001520393
     0.001510524
     0.000684931
     0.001199286
     0.001571188
     0.001532326
     0.000718074
     0.001191117
    -0.000008767
    -0.000003887
     0.000039399
    -0.000554299
     0.000109472
    -0.000037453
    -0.000534514
    -0.000792774
    -0.000317564
    -0.000440416
     0.000501513
    -0.001436458
    -0.000825220
    -0.000027794
    -0.001991048
    -0.000164944
    -0.002286956
    -0.001807109
    -0.000084164
    -0.002108282
    -0.000776333
    -0.000000001
    -0.001316892
     0.000945081
    -0.000000003
    -0.000000005
    -0.000000285
    -0.002534303
     0.000006860
     0.000229353
    -0.000633703
     0.000224973
     0.000016530
    -0.000499603
     0.000355602
    -0.000404627
     0.000209089
     0.000314259
     0.000139111
    -0.000001241
    -0.000134333
    -0.000071440
    -0.001144178
    -0.001929992
     0.000000253
    -0.001458079
    -0.001299828
    -0.000062220
     0.000469437
    -0.001222637
    -0.000955833
    -0.001084277
    -0.000584551
    -0.001272045
    -0.001403258
     0.000057130
    -0.001618683
    -0.000836835
    -0.000920309
     0.000741420
     0.000200631
     0.000430746
     0.000754700
     0.000434015
     0.000306601
    -0.000297387
     0.000286034
     0.000007051
    -0.000010222
    -0.000011485
    -0.000000859
    -0.001464646
    -0.001312023
    -0.001552683
    -0.001179300
    -0.001344481
     0.000397877
     0.000542371
    -0.000435979
    -0.000766331
     0.000412524
    -0.001052797
    -0.000000131
    -0.000419433
    -0.000000078
    -0.000163125
    -0.000069918
    -0.001511580
    -0.001643629
    -0.001211137
    -0.002115416
    -0.000001570
    -0.001820178
    -0.001554283
     0.000803542
     0.000027084
    -0.001323746
    -0.000027958
    -0.001015294
     0.000547880
     0.000145558
    -0.000306514
     0.000693671
    -0.000280800
    -0.000323292
     0.000532857
     0.000578126
     0.000093474
     0.000133851
    -0.002100827
    -0.002460264
     0.000354166
    -0.000938839
    -0.001650471
    -0.001364376
    -0.001948802
    -0.000242699
    -0.000061142
    -0.000000095
    -0.000699892
    -0.002540283
     0.000116682
    -0.000756622
    -0.000477346
     0.000631103
    -0.000000044
    -0.002163584
    -0.001727623
    -0.001249480
    -0.000305991
    -0.001891734
    -0.001448446
    -0.001343609
     0.000012424
    -0.001229769
     0.000557172
    -0.000253749
    -0.000654343
     0.000000441
     0.000940319
    -0.001898699
     0.000342870
    -0.002512885
    -0.000959032
    -0.002008463
    -0.002345680
     0.000283003
    -0.001799682
    -0.000000287
    -0.000012107
    -0.000880040
    -0.002024479
     0.000001952
    -0.000911126
    -0.003005192
     0.000006630
     0.000008486
     0.000118754
    -0.000468628
     0.000872899
     0.000875143
    -0.000269777
     0.000019717
     0.000095699
     0.000444303
    -0.000000067
     0.000444443
     0.000682413
     0.000000168
    -0.000551311
    -0.000453431
    -0.000000040
    -0.001094760
    -0.000546069
    -0.002207602
    -0.000757570
     0.000377713
    -0.001558271
    -0.000311863
    -0.000000187
    -0.001224558
    -0.000644933
    -0.001504459
     0.000159428
    -0.000028815
    -0.000000450
    -0.000053308
    -0.002250560
    -0.002233563
    -0.001047448
    -0.001902434
    -0.000000064
    -0.000092664
    -0.000000052
    -0.000957945
    -0.000772233
    -0.001665113
    -0.001082907
    -0.000000047
    -0.001159324
    -0.000891947
    -0.002088284
    -0.000913132
    -0.002535699
    -0.001815847
     0.000004168
    -0.000000000
    -0.000116289
     0.000000192
     0.000001280
    -0.000167037
     0.000531428
    -0.000000090
    -0.001623839
    -0.000000002
    -0.000460519
    -0.000000564
     0.000478022
    -0.000000938
    -0.000000000
    -0.000001973
     0.001576741
     0.001621542
     0.001838534
     0.001828983
    -0.000000022
     0.001100541
    -0.000000005
     0.001000536
     0.000095630
     0.000035499
    -0.000000005
     0.001070151
     0.000153522
    -0.000000000
     0.000915099
     0.000036192
     0.000983931
     0.000995658
     0.001039258
     0.001049820
     0.001525075
     0.001564963
     0.001619623
     0.001645222
     0.001457904
     0.001477226
     0.001734117
     0.001742494
    -0.000000030
     0.001492700
     0.000978493
     0.000838150
     0.000174857
     0.001680107
     0.001678807
     0.001831671
     0.001711813
     0.001732439
     0.001624923
     0.001851076
     0.001628072
     0.001280888
     0.001310674
     0.001429986
     0.001451116
     0.001784596
     0.001730040
     0.001301694
     0.001332942
     0.001644341
     0.001908247
     0.001236495
     0.001409019
     0.000012967
    -0.000009037
    -0.000001431
    -0.000000130
     0.000002129
    -0.000006362
    -0.000004826
    -0.000000260
     0.000721082
     0.000543513
     0.000615082
     0.001672913
    -0.000000116
     0.001303308
     0.000419934
    -0.000000001
     0.000064974
     0.001216536
     0.001435954
     0.001124368
     0.001352893
    -0.000004237
     0.001514556
     0.000896770
     0.000827322
    -0.000001178
     0.001384413
     0.001271318
     0.001750746
     0.001604580
     0.002051365
     0.001551516
    -0.000000010
     0.000332790
     0.001958709
     0.001379661
    -0.000005550
     0.001238609
     0.000008245
    -0.000000254
    -0.000011093
     0.001873421
     0.000553394
     0.001457903
     0.001807578
     0.001468609
     0.001022625
     0.001230555
     0.001754001
     0.001808222
    -0.000000001
     0.001502282
     0.000814526
     0.000532806
     0.001581600
     0.001316643
    -0.000000001
     0.000634340
     0.001823049
     0.000154474
     0.001832773
    -0.000000055
     0.002059804
     0.001657378
     0.001255771
     0.001500183
     0.001344637
     0.001319410
     0.001752811
     0.001473030
     0.000199555
     0.001727480
    -0.000000009
     0.000603321
     0.000541856
     0.000791554
     0.001390862
    -0.000368992
     0.001595488
     0.001894102
    -0.000000224
     0.001503865
     0.001202341
     0.001552574
     0.000037461
    -0.000000012
     0.001273195
     0.000772488
     0.001432654
     0.000909928
     0.001116027
     0.001276965
     0.001252191
     0.001406651
     0.001397497
    -0.000003129
     0.000871276
     0.001584280
    -0.000010037
     0.001414026
     0.001629765
     0.001861766
     0.000226823
     0.001653163
     0.001534869
    -0.000018557
     0.001648917
    -0.000002571
     0.001525135
     0.000071867
     0.001711918
     0.000908216
     0.001496896
     0.000466180
    -0.000005918
     0.001820180
    -0.000015047
     0.001258089
     0.001646760
     0.001596969
     0.001234588
     0.001575477
    -0.000457107
    -0.000000037
     0.001353325
     0.001705853
     0.001629801
    -0.000004976
    -0.000014177
     0.001385679
     0.001780442
     0.001780623
    -0.000016677
    -0.000000851
     0.001475159
     0.001602584
