Corrected dielectric energy   =     -0.003386653
Total C-PCM charge            =      0.000000000
C-PCM corrected charges:
    -0.000504337
    -0.000446687
     0.000245686
     0.000000043
    -0.000284167
     0.000931364
    -0.003477345
     0.000002018
    -0.001045177
     0.000074840
     0.000722961
    -0.003367549
     0.000000179
    -0.002200157
    -0.000904834
     0.000331654
     0.000867804
    -0.002598227
     0.000848262
     0.000044319
    -0.001448970
    -0.000296006
     0.000843361
    -0.000000001
    -0.001430645
     0.000496325
    -0.003574277
     0.000374274
    -0.001138238
    -0.001759960
    -0.001397195
    -0.003547673
     0.000000241
     0.000020732
    -0.003147126
     0.000422749
     0.000336631
     0.000533548
     0.000282306
    -0.003313579
     0.000039699
    -0.003748332
    -0.002106127
    -0.000697502
    -0.000030123
    -0.003755823
     0.000000123
     0.000331860
    -0.002846028
     0.000099252
    -0.000742148
    -0.000000004
     0.000000630
    -0.002245987
     0.000386019
    -0.003173110
    -0.001444077
     0.000268802
     0.001064652
    -0.003109884
    -0.000000017
    -0.000047300
    -0.002724330
     0.000816303
     0.000041256
    -0.000000013
     0.000004195
    -0.002543700
     0.000953415
    -0.003753904
    -0.000002560
    -0.001114578
    -0.000476905
    -0.000473534
    -0.003765919
     0.000000011
     0.000200840
    -0.000000000
     0.000231784
    -0.000615511
    -0.000351904
    -0.001039731
    -0.000597947
     0.000055845
     0.000006447
     0.000028934
     0.000625145
     0.000340997
     0.000072189
    -0.000817276
    -0.001673402
    -0.000844660
    -0.001014010
    -0.001526601
    -0.001201830
    -0.001679321
    -0.000416321
    -0.000000014
    -0.000732902
     0.000031376
    -0.000325560
     0.000191625
    -0.001882069
    -0.000104000
     0.000707060
     0.000069190
    -0.000484215
     0.000917001
    -0.000329197
    -0.000000000
    -0.000276954
    -0.002864558
    -0.000142896
    -0.001159324
    -0.002082372
    -0.001586715
    -0.002803935
     0.000498408
    -0.000111079
    -0.002231214
    -0.001469118
     0.000001034
     0.000494987
    -0.000829480
    -0.002790954
    -0.003617664
    -0.003029464
    -0.002555728
    -0.000157898
    -0.003582614
     0.001032460
    -0.000748909
    -0.001916075
     0.000951248
     0.000055522
    -0.000245259
     0.000009361
     0.000005685
     0.000026551
    -0.000667476
     0.000001258
    -0.001378766
    -0.002254238
    -0.001746208
     0.000111136
    -0.000476046
    -0.001532851
    -0.000331320
     0.000167081
    -0.002282015
    -0.002560185
    -0.000535798
     0.000476677
     0.000004079
     0.000304701
    -0.000945591
     0.000367599
     0.000131549
     0.000202080
     0.000860827
    -0.000364134
    -0.002002686
    -0.000718522
    -0.002376144
    -0.002238208
    -0.000000081
    -0.002834681
    -0.002769911
     0.000238401
    -0.000000003
    -0.003422677
    -0.003351552
     0.000244690
    -0.000800461
     0.000754376
    -0.000000015
     0.000178256
    -0.001313383
     0.000114611
     0.000063407
    -0.000532998
    -0.002098180
     0.000659163
    -0.000183125
    -0.000883756
     0.000597082
    -0.002191085
     0.000000378
    -0.000327718
     0.000000345
     0.000017137
    -0.001806749
     0.000059710
     0.000051843
    -0.003833334
    -0.000000003
    -0.002457870
    -0.002143025
    -0.000728424
    -0.003832339
     0.000095713
    -0.000303461
    -0.003272457
    -0.000278685
     0.000327942
    -0.000559742
    -0.001295335
    -0.003339160
    -0.003163804
    -0.002183589
    -0.001150500
     0.000072182
    -0.003344805
     0.000730497
     0.000159098
    -0.001889011
    -0.000742184
     0.000332920
     0.000042674
     0.000402914
    -0.002544802
     0.000576106
    -0.000801576
     0.000000037
     0.000539389
     0.000329631
     0.000622198
    -0.001350484
     0.000226003
    -0.000377279
    -0.000939242
    -0.000131321
     0.000118875
     0.000261296
    -0.000000017
    -0.001992979
    -0.001523531
    -0.001541991
    -0.000069093
    -0.002559095
     0.000305639
     0.000869780
    -0.000138969
    -0.001170957
     0.000007749
     0.000002223
     0.000081718
    -0.001591762
     0.000452193
    -0.003337161
     0.000061111
    -0.002533164
    -0.002778943
    -0.000789710
    -0.003400363
     0.000634267
    -0.000867158
    -0.002992982
    -0.001149073
     0.000255526
    -0.001453188
    -0.002187289
    -0.002738339
     0.000000459
     0.000762305
     0.000130821
     0.000628364
     0.001741752
     0.000006037
     0.001537497
     0.001470730
    -0.000000087
     0.001247652
     0.001420415
     0.001202284
     0.001383451
     0.000214266
    -0.000000234
     0.001733952
     0.000772427
     0.000002093
    -0.000000003
     0.001490141
     0.001431716
     0.001459150
     0.001558666
     0.002150312
     0.001816355
    -0.000000296
     0.000095111
     0.001451706
     0.001503226
     0.000700452
     0.001427639
     0.001344426
     0.001875483
     0.001865007
     0.001665399
     0.001949208
     0.001517936
     0.001870592
     0.001394900
     0.001849602
     0.002071262
    -0.000016372
     0.001758665
     0.001296112
    -0.000004786
     0.001692741
    -0.000000009
     0.001545373
    -0.000002090
    -0.000011037
     0.000154158
     0.000404281
     0.001872765
    -0.000000012
     0.001998251
     0.001863122
     0.001370143
     0.001879611
     0.001520591
    -0.000002057
    -0.000017289
     0.001715623
     0.001592097
     0.001699865
     0.001983191
    -0.000001517
    -0.000000002
     0.000619001
     0.000796416
     0.001522532
     0.000859561
     0.001590297
     0.001669528
     0.001487691
     0.001528263
     0.001445501
     0.001441700
     0.001386554
     0.001386358
     0.001202244
     0.001212041
     0.000147522
    -0.000013496
     0.001361330
     0.000902477
    -0.000001708
    -0.000000012
     0.002029186
     0.001953507
     0.001712956
     0.001761695
    -0.000000048
    -0.000000002
     0.001890799
     0.002075861
     0.000424353
     0.000194790
     0.001712476
     0.001519872
     0.001454976
     0.001484365
    -0.000001403
    -0.000000719
     0.001604020
     0.001678597
    -0.000005221
     0.000006233
     0.001901666
     0.001874114
     0.001422142
     0.001458202
     0.000890687
     0.000125522
     0.001803794
     0.001932759
    -0.000000051
     0.001622270
     0.001636320
     0.002009394
     0.001828213
     0.001918911
     0.002078629
     0.001394460
     0.000856756
    -0.000005325
     0.001547877
    -0.000006188
     0.001893595
     0.001360062
     0.000748063
     0.000685487
     0.000828583
    -0.000000094
     0.001913276
     0.000139729
     0.001654019
     0.001418957
    -0.000000016
     0.000084159
     0.001524478
     0.001615699
     0.001539968
     0.001613594
     0.001398810
     0.001450428
     0.001251480
     0.001469985
     0.001477818
     0.001613934
     0.001378243
    -0.000002129
     0.001602843
    -0.000001807
     0.000847349
     0.001415537
    -0.000006650
     0.001583535
     0.002066823
    -0.000017409
     0.001648739
     0.000366267
     0.002090144
    -0.000000008
     0.001781706
     0.001524423
     0.001049561
     0.001215703
     0.001803124
     0.001561441
     0.001479763
     0.001714142
     0.001836407
     0.001362414
    -0.000020705
     0.001750796
     0.001799006
    -0.000004957
     0.001454895
     0.001921713
     0.001454127
     0.000136478
    -0.000000018
     0.001524183
    -0.000001858
    -0.000006836
     0.001878532
     0.001565930
     0.001755592
     0.000006322
    -0.000001467
     0.001721193
     0.002045161
     0.001550125
