4		 # Number of atoms 
456		 # Number of surface points
2		 # Surface type
0		 # Epsilon function type
1		 # Print level
0		 # FEps X flag
0		 # DRACO scheme

110		 # Number of Leb. points  (used if Isodens = 0)   

1		 # Isodensity discr. scheme  

     5.000000000	 # Threshold for H atoms (Ncharges/Angstroem^2) for Isodens = 1
     5.000000000	 # Threshold for non-H atoms (Ncharges/Angstroem^2) for Isodens = 1

     0.000000000	 # FEps X parameter

     0.000000000	 # cutoff segment area (a.u.)
    0.00000010000000	 # cutoff switching function

   355.336004972	 # Volume
   254.345389238	 # Area

    -0.003452646	 # CPCM dielectric energy
     0.044166367	 # One-electron operator energy

#------------------------------------------------------------
# CARTESIAN COORDINATES (A.U.) + RADII (A.U.) + ATOMIC NUMBER 
#------------------------------------------------------------
    -2.579590061       1.176191775      -0.394100519      4.172515304 13
    -1.033061173       0.787523693       2.130464121      2.494438497  1
    -2.453408599       3.788412993      -1.835264549      2.494438497  1
    -4.252695235      -1.047371792      -1.476998367      2.494438497  1

#------------------------------------------------------------
# SURFACE POINTS (A.U.)    (Hint - charge NOT scaled by FEps)
#------------------------------------------------------------
          X                 Y                 Z               area            potential          charge            w_leb             Switch_F          G_width       atom
     1.592925243       1.176191775      -0.394100519       0.186966648       0.035726856      -0.000531718       0.010739109  1.00000000000000  11.34375766680103      0
    -6.752105365       1.176191775      -0.394100519       0.186966648       0.033637941      -0.000473729       0.010739109  1.00000000000000  11.34375766680103      0
    -2.579590061      -2.996323529      -0.394100519       0.186966408      -0.000837718       0.000222437       0.010739109  0.99999871205369  11.34375766680103      0
    -2.579590061       1.176191775       3.778414784       0.000116087      -0.000901820       0.000000042       0.010739109  0.00062089447181  11.34375766680103      0
    -2.579590061       1.176191775      -4.566615823       0.186966648       0.019531666      -0.000311270       0.010739109  1.00000000000000  11.34375766680103      0
    -0.170587227       3.585194609       2.014902314       0.787150392      -0.003333990       0.000834852       0.045227867  0.99966787239656  5.52761798426890      0
    -4.988592895       3.585194609       2.014902314       0.787411913       0.057519230      -0.003587335       0.045227867  1.00000000000000  5.52761798426890      0
    -0.170587227      -1.232811059       2.014902314       0.008365938      -0.007218546       0.000002011       0.045227867  0.01062460178478  5.52761798426890      0
    -4.988592895      -1.232811059       2.014902314       0.787411913       0.020203877      -0.001150042       0.045227867  1.00000000000000  5.52761798426890      0
    -0.170587227       3.585194609      -2.803103353       0.377477661       0.002745641       0.000063300       0.045227867  0.47939033468351  5.52761798426890      0
    -4.988592895       3.585194609      -2.803103353       0.757399666      -0.001734461       0.000652526       0.045227867  0.96188494692474  5.52761798426890      0
    -0.170587227      -1.232811059      -2.803103353       0.787411913       0.056396300      -0.003477277       0.045227867  1.00000000000000  5.52761798426890      0
    -1.112683747       2.643098090       3.226155782       0.002623294      -0.007935848       0.000000188       0.043351320  0.00347575134704  5.64598748540270      0
    -4.046496376       2.643098090       3.226155782       0.754741449       0.041650510      -0.002302780       0.043351320  1.00000000000000  5.64598748540270      0
    -4.046496376      -0.290714539       3.226155782       0.754741449       0.020953048      -0.001003846       0.043351320  0.99999999999935  5.64598748540270      0
    -1.112683747       2.643098090      -4.014356821       0.749571913       0.010681016       0.000244060       0.043351320  0.99315058704044  5.64598748540270      0
    -4.046496376       2.643098090      -4.014356821       0.754563088      -0.003173348       0.000775965       0.043351320  0.99976368022353  5.64598748540270      0
    -1.112683747      -0.290714539      -4.014356821       0.754741449       0.045672438      -0.002702248       0.043351320  1.00000000000000  5.64598748540270      0
    -4.046496376      -0.290714539      -4.014356821       0.680164638      -0.003685771       0.000787416       0.043351320  0.90118892936263  5.64598748540270      0
    -1.112683747       4.796448077       1.072805795       0.754741449       0.003664643      -0.000053014       0.043351320  0.99999999999718  5.64598748540270      0
    -4.046496376       4.796448077       1.072805795       0.754741449       0.030442767      -0.001549497       0.043351320  1.00000000000000  5.64598748540270      0
    -1.112683747      -2.444064526       1.072805795       0.754741449       0.009294475      -0.000394312       0.043351320  0.99999999999978  5.64598748540270      0
    -4.046496376      -2.444064526       1.072805795       0.754441587      -0.002287430       0.000751938       0.043351320  0.99960269580710  5.64598748540270      0
    -4.046496376       4.796448077      -1.861006834       0.000000436      -0.001486509      -0.000000001       0.043351320  0.00000057820632  5.64598748540270      0
    -1.112683747      -2.444064526      -1.861006834       0.754741449       0.030333185      -0.001531500       0.043351320  0.99999999999999  5.64598748540270      0
     1.040666240       2.643098090       1.072805795       0.754697338       0.003664760       0.000401438       0.043351320  0.99994155491270  5.64598748540270      0
    -6.199846363       2.643098090       1.072805795       0.754741449       0.061689800      -0.003679911       0.043351320  1.00000000000000  5.64598748540270      0
     1.040666240      -0.290714539       1.072805795       0.539390960       0.005779538       0.000334699       0.043351320  0.71466985237439  5.64598748540270      0
    -6.199846363      -0.290714539       1.072805795       0.754741449       0.027647343      -0.001237451       0.043351320  0.99999999992351  5.64598748540270      0
     1.040666240       2.643098090      -1.861006834       0.754741449       0.033397397      -0.001862158       0.043351320  1.00000000000000  5.64598748540270      0
    -6.199846363       2.643098090      -1.861006834       0.754741449       0.025046357      -0.001499019       0.043351320  1.00000000000000  5.64598748540270      0
     1.040666240      -0.290714539      -1.861006834       0.754741449       0.061414738      -0.003653291       0.043351320  1.00000000000000  5.64598748540270      0
    -6.199846363      -0.290714539      -1.861006834       0.001169301      -0.005976357       0.000000231       0.043351320  0.00154927379840  5.64598748540270      0
     0.160220934       3.916002770       1.154045268       0.788659679       0.003085680      -0.000081998       0.045299537  1.00000000000000  5.52324353410409      0
    -5.319401057       3.916002770       1.154045268       0.788659679       0.053169695      -0.003256532       0.045299537  1.00000000000000  5.52324353410409      0
     0.160220934      -1.563619220       1.154045268       0.783442358       0.006892085       0.000337713       0.045299537  0.99338457193098  5.52324353410409      0
    -5.319401057      -1.563619220       1.154045268       0.787773627       0.006499628       0.000246856       0.045299537  0.99887650934409  5.52324353410409      0
     0.160220934       3.916002770      -1.942246307       0.658193612       0.001845783       0.000481024       0.045299537  0.83457241376230  5.52324353410409      0
    -5.319401057       3.916002770      -1.942246307       0.787365329       0.007982328       0.000192488       0.045299537  0.99835879784047  5.52324353410409      0
     0.160220934      -1.563619220      -1.942246307       0.788659679       0.054866733      -0.003423436       0.045299537  1.00000000000000  5.52324353410409      0
     0.160220934       2.724337563       2.345710476       0.040202830      -0.011173033       0.000038513       0.045299537  0.05097614513244  5.52324353410409      0
    -5.319401057       2.724337563       2.345710476       0.788659679       0.061935800      -0.003858815       0.045299537  1.00000000000000  5.52324353410409      0
    -5.319401057      -0.371954012       2.345710476       0.788659679       0.035380421      -0.002213751       0.045299537  1.00000000000000  5.52324353410409      0
     0.160220934       2.724337563      -3.133911515       0.788658989       0.023406446      -0.000801574       0.045299537  0.99999912421485  5.52324353410409      0
    -5.319401057       2.724337563      -3.133911515       0.788659679       0.005558589      -0.000132327       0.045299537  0.99999999994784  5.52324353410409      0
     0.160220934      -0.371954012      -3.133911515       0.788659679       0.062039183      -0.003866376       0.045299537  1.00000000000000  5.52324353410409      0
    -5.319401057      -0.371954012      -3.133911515       0.000518365      -0.010606095       0.000000118       0.045299537  0.00065727316126  5.52324353410409      0
    -1.031444274       3.916002770       2.345710476       0.788659465       0.002966047       0.000230520       0.045299537  0.99999972826475  5.52324353410409      0
    -4.127735849       3.916002770       2.345710476       0.788659679       0.047073377      -0.002955143       0.045299537  1.00000000000000  5.52324353410409      0
    -1.031444274      -1.563619220       2.345710476       0.117189936      -0.009860487       0.000096086       0.045299537  0.14859379655066  5.52324353410409      0
    -4.127735849      -1.563619220       2.345710476       0.788659679       0.013734295      -0.000846954       0.045299537  1.00000000000000  5.52324353410409      0
    -1.031444274       3.916002770      -3.133911515       0.000004092      -0.001642819      -0.000000004       0.045299537  0.00000518843997  5.52324353410409      0
    -4.127735849       3.916002770      -3.133911515       0.001456761      -0.010102450       0.000000612       0.045299537  0.00184713556876  5.52324353410409      0
    -1.031444274      -1.563619220      -3.133911515       0.788659679       0.041358144      -0.002353136       0.045299537  1.00000000000000  5.52324353410409      0
    -0.606384987       3.149396849       2.707964507       0.328443265      -0.008549461       0.000369330       0.044946511  0.41972854354999  5.54489189361126      0
    -4.552795135       3.149396849       2.707964507       0.782513532       0.053361958      -0.003281827       0.044946511  1.00000000000000  5.54489189361126      0
    -4.552795135      -0.797013299       2.707964507       0.782513532       0.024937002      -0.001549575       0.044946511  1.00000000000000  5.54489189361126      0
    -0.606384987       3.149396849      -3.496165546       0.555241466       0.005746232       0.000232596       0.044946511  0.70956148800666  5.54489189361126      0
    -4.552795135       3.149396849      -3.496165546       0.765577041      -0.005291856       0.000983777       0.044946511  0.97835629544726  5.54489189361126      0
    -0.606384987      -0.797013299      -3.496165546       0.782513532       0.052747194      -0.003218466       0.044946511  1.00000000000000  5.54489189361126      0
    -4.552795135      -0.797013299      -3.496165546       0.000233512      -0.009186089      -0.000000017       0.044946511  0.00029841209569  5.54489189361126      0
    -0.606384987       4.278256802       1.579104555       0.782513532       0.003769878      -0.000149679       0.044946511  1.00000000000000  5.54489189361126      0
    -4.552795135       4.278256802       1.579104555       0.782513532       0.046557361      -0.002832209       0.044946511  1.00000000000000  5.54489189361126      0
    -0.606384987      -1.925873252       1.579104555       0.776239614       0.000405689       0.000729605       0.044946511  0.99198235135111  5.54489189361126      0
    -4.552795135      -1.925873252       1.579104555       0.782513516       0.006832185      -0.000059867       0.044946511  0.99999997940447  5.54489189361126      0
    -0.606384987       4.278256802      -2.367305593       0.000024149      -0.004181703      -0.000000013       0.044946511  0.00003086019055  5.54489189361126      0
    -4.552795135       4.278256802      -2.367305593       0.012394120      -0.006479683       0.000004089       0.044946511  0.01583885692058  5.54489189361126      0
    -0.606384987      -1.925873252      -2.367305593       0.782513532       0.044812410      -0.002651026       0.044946511  1.00000000000000  5.54489189361126      0
     0.522474966       3.149396849       1.579104555       0.781569203      -0.002765955       0.000859960       0.044946511  0.99879320984658  5.54489189361126      0
    -5.681655088       3.149396849       1.579104555       0.782513532       0.062503180      -0.003863596       0.044946511  1.00000000000000  5.54489189361126      0
     0.522474966      -0.797013299       1.579104555       0.041200451      -0.002486503      -0.000002231       0.044946511  0.05265142288233  5.54489189361126      0
    -5.681655088      -0.797013299       1.579104555       0.782513532       0.024421102      -0.001217892       0.044946511  0.99999999999839  5.54489189361126      0
     0.522474966       3.149396849      -2.367305593       0.782512349       0.019338634      -0.000579262       0.044946511  0.99999848788046  5.54489189361126      0
    -5.681655088       3.149396849      -2.367305593       0.782513532       0.013330155      -0.000575777       0.044946511  0.99999999997656  5.54489189361126      0
     0.522474966      -0.797013299      -2.367305593       0.782513532       0.062646263      -0.003875669       0.044946511  1.00000000000000  5.54489189361126      0
    -2.178264666       1.577517170       3.739633847       0.000098703      -0.002836033       0.000000010       0.029557378  0.00019180871216  6.83766973203479      0
    -2.980915456       1.577517170       3.739633847       0.478664063       0.008321341       0.000160442       0.029557378  0.93018437423794  6.83766973203479      0
    -2.178264666       0.774866380       3.739633847       0.000000132      -0.002861874      -0.000000000       0.029557378  0.00000025591887  6.83766973203479      0
    -2.980915456       0.774866380       3.739633847       0.320132525       0.003380981       0.000211152       0.029557378  0.62211119443909  6.83766973203479      0
    -2.178264666       1.577517170      -4.527834886       0.514590523       0.019515879      -0.000683502       0.029557378  1.00000000000000  6.83766973203479      0
    -2.980915456       1.577517170      -4.527834886       0.514590523       0.012179274      -0.000419476       0.029557378  1.00000000000000  6.83766973203479      0
    -2.178264666       0.774866380      -4.527834886       0.514590523       0.027025030      -0.001109027       0.029557378  1.00000000000000  6.83766973203479      0
    -2.980915456       0.774866380      -4.527834886       0.514590523       0.016752310      -0.000666220       0.029557378  1.00000000000000  6.83766973203479      0
    -2.178264666       5.309926142       0.007224876       0.100014355      -0.006913209       0.000053944       0.029557378  0.19435716453045  6.83766973203479      0
    -2.980915456       5.309926142       0.007224876       0.166405288      -0.002132645       0.000005814       0.029557378  0.32337418021776  6.83766973203479      0
    -2.178264666      -2.957542592       0.007224876       0.514590523       0.005930232      -0.000036047       0.029557378  0.99999999998914  6.83766973203479      0
    -2.980915456      -2.957542592       0.007224876       0.509166451      -0.004613259       0.000576131       0.029557378  0.98945944200243  6.83766973203479      0
    -2.178264666      -2.957542592      -0.795425915       0.514568909       0.005181472       0.000277604       0.029557378  0.99995799747820  6.83766973203479      0
    -2.980915456      -2.957542592      -0.795425915       0.085141855      -0.007030793       0.000069424       0.029557378  0.16545554479550  6.83766973203479      0
     1.554144305       1.577517170       0.007224876       0.514590523       0.026319623      -0.000885351       0.029557378  1.00000000000000  6.83766973203479      0
    -6.713324428       1.577517170       0.007224876       0.514590523       0.044466177      -0.001743473       0.029557378  1.00000000000000  6.83766973203479      0
     1.554144305       0.774866380       0.007224876       0.514590523       0.029026454      -0.000912268       0.029557378  1.00000000000000  6.83766973203479      0
    -6.713324428       0.774866380       0.007224876       0.514590523       0.032622473      -0.001081769       0.029557378  1.00000000000000  6.83766973203479      0
     1.554144305       1.577517170      -0.795425915       0.514590523       0.039819641      -0.001596716       0.029557378  1.00000000000000  6.83766973203479      0
    -6.713324428       1.577517170      -0.795425915       0.514590523       0.033699867      -0.001270859       0.029557378  1.00000000000000  6.83766973203479      0
     1.554144305       0.774866380      -0.795425915       0.514590523       0.044630273      -0.001749545       0.029557378  1.00000000000000  6.83766973203479      0
    -6.713324428       0.774866380      -0.795425915       0.514590523       0.021154646      -0.000482270       0.029557378  0.99999999973845  6.83766973203479      0
    -1.653439689       2.102342147       3.567512149       0.000051858      -0.004480326      -0.000000014       0.039068257  0.00007624298736  5.94742610313463      0
    -3.505740433       2.102342147       3.567512149       0.680173810       0.024900499      -0.000821392       0.039068257  0.99999998041052  5.94742610313463      0
    -3.505740433       0.250041403       3.567512149       0.680012790       0.011977790      -0.000047614       0.039068257  0.99976324642252  5.94742610313463      0
    -1.653439689       2.102342147      -4.355713188       0.680173801       0.016196735      -0.000413998       0.039068257  0.99999996619397  5.94742610313463      0
    -3.505740433       2.102342147      -4.355713188       0.680173823       0.003445857       0.000103386       0.039068257  0.99999999911141  5.94742610313463      0
    -1.653439689       0.250041403      -4.355713188       0.680173824       0.036590829      -0.001975022       0.039068257  1.00000000000000  5.94742610313463      0
    -3.505740433       0.250041403      -4.355713188       0.680173824       0.008574874      -0.000192279       0.039068257  0.99999999986101  5.94742610313463      0
    -1.653439689       5.137804444       0.532049852       0.678927169      -0.001828988       0.000632000       0.039068257  0.99816715285009  5.94742610313463      0
    -3.505740433       5.137804444       0.532049852       0.680060525       0.012268781      -0.000013191       0.039068257  0.99983342712887  5.94742610313463      0
    -1.653439689      -2.785420894       0.532049852       0.680173824       0.011128677      -0.000574014       0.039068257  1.00000000000000  5.94742610313463      0
    -3.505740433      -2.785420894       0.532049852       0.671410781      -0.005928465       0.000846900       0.039068257  0.98711646575544  5.94742610313463      0
    -1.653439689      -2.785420894      -1.320250891       0.680173794       0.016159340      -0.000416940       0.039068257  0.99999995647315  5.94742610313463      0
    -3.505740433      -2.785420894      -1.320250891       0.000000181      -0.004440793      -0.000000000       0.039068257  0.00000026577451  5.94742610313463      0
     1.382022608       2.102342147       0.532049852       0.680173821       0.014267889      -0.000366140       0.039068257  0.99999999606863  5.94742610313463      0
    -6.541202730       2.102342147       0.532049852       0.680173824       0.055254652      -0.002959054       0.039068257  1.00000000000000  5.94742610313463      0
     1.382022608       0.250041403       0.532049852       0.680123516       0.017720873      -0.000228938       0.039068257  0.99992603678704  5.94742610313463      0
    -6.541202730       0.250041403       0.532049852       0.680173824       0.030450417      -0.001248761       0.039068257  0.99999999999657  5.94742610313463      0
     1.382022608       2.102342147      -1.320250891       0.680173824       0.040193869      -0.002175772       0.039068257  1.00000000000000  5.94742610313463      0
    -6.541202730       2.102342147      -1.320250891       0.680173824       0.031498381      -0.001678927       0.039068257  1.00000000000000  5.94742610313463      0
     1.382022608       0.250041403      -1.320250891       0.680173824       0.054570211      -0.002898356       0.039068257  1.00000000000000  5.94742610313463      0
    -6.541202730       0.250041403      -1.320250891       0.599944083       0.004468992       0.000444875       0.039068257  0.88204523873847  5.94742610313463      0
     0.346080207       4.101862043       0.145149820       0.798553570       0.005568991      -0.000215240       0.045867828  0.99999999999991  5.48892104884507      0
    -5.505260329       4.101862043       0.145149820       0.798553570       0.040707162      -0.002339634       0.045867828  1.00000000000000  5.48892104884507      0
     0.346080207      -1.749478493       0.145149820       0.798553570       0.028531682      -0.001575469       0.045867828  1.00000000000000  5.48892104884507      0
    -5.505260329      -1.749478493       0.145149820       0.004344592      -0.005910495       0.000001001       0.045867828  0.00544057724762  5.48892104884507      0
     0.346080207       4.101862043      -0.933350859       0.798425129       0.003666303       0.000397254       0.045867828  0.99983915816148  5.48892104884507      0
    -5.505260329       4.101862043      -0.933350859       0.798553550       0.023476248      -0.000935335       0.045867828  0.99999997610323  5.48892104884507      0
     0.346080207      -1.749478493      -0.933350859       0.798553570       0.045955498      -0.002901128       0.045867828  1.00000000000000  5.48892104884507      0
    -5.505260329       1.715442115       2.531569748       0.798553570       0.059143262      -0.003729147       0.045867828  1.00000000000000  5.48892104884507      0
    -5.505260329       0.636941435       2.531569748       0.798553570       0.049461689      -0.003140026       0.045867828  1.00000000000000  5.48892104884507      0
     0.346080207       1.715442115      -3.319770787       0.798553570       0.044952611      -0.002665100       0.045867828  1.00000000000000  5.48892104884507      0
    -5.505260329       1.715442115      -3.319770787       0.798553570       0.005507385      -0.000262400       0.045867828  1.00000000000000  5.48892104884507      0
     0.346080207       0.636941435      -3.319770787       0.798553570       0.058815906      -0.003694120       0.045867828  1.00000000000000  5.48892104884507      0
    -5.505260329       0.636941435      -3.319770787       0.790403496      -0.004658416       0.000946285       0.045867828  0.98979395455240  5.48892104884507      0
    -2.040339721       4.101862043       2.531569748       0.798553570       0.015834611      -0.000854377       0.045867828  0.99999999999999  5.48892104884507      0
    -3.118840401       4.101862043       2.531569748       0.798553570       0.032184752      -0.002024596       0.045867828  1.00000000000000  5.48892104884507      0
    -2.040339721      -1.749478493       2.531569748       0.782567914      -0.005895599       0.000875021       0.045867828  0.97998173727630  5.48892104884507      0
    -3.118840401      -1.749478493       2.531569748       0.798553569       0.004148138      -0.000047484       0.045867828  0.99999999987006  5.48892104884507      0
    -2.040339721      -1.749478493      -3.319770787       0.798445695       0.018433144      -0.000345070       0.045867828  0.99986491215781  5.48892104884507      0
    -3.118840401      -1.749478493      -3.319770787       0.035176879      -0.002026478       0.000009013       0.045867828  0.04405074469734  5.48892104884507      0
    -1.476313223       5.200202731      -0.394100519       0.009760121      -0.010884138       0.000005570       0.037477252  0.01495862205367  6.07235570148215      0
    -3.682866900       5.200202731      -0.394100519       0.083974065      -0.000484690       0.000025230       0.037477252  0.12870089237109  6.07235570148215      0
    -1.476313223      -2.847819181      -0.394100519       0.652474610       0.016985195      -0.000753672       0.037477252  1.00000000000000  6.07235570148215      0
    -3.682866900      -2.847819181      -0.394100519       0.002086852      -0.010851952       0.000001228       0.037477252  0.00319836483595  6.07235570148215      0
     1.444420895       2.279468614      -0.394100519       0.652474610       0.028849098      -0.001467244       0.037477252  1.00000000000000  6.07235570148215      0
    -6.603601018       2.279468614      -0.394100519       0.652474610       0.045299615      -0.002344287       0.037477252  1.00000000000000  6.07235570148215      0
     1.444420895       0.072914936      -0.394100519       0.652474610       0.039541688      -0.001834654       0.037477252  1.00000000000000  6.07235570148215      0
    -6.603601018       0.072914936      -0.394100519       0.650801987       0.013445570       0.000037829       0.037477252  0.99743649255300  6.07235570148215      0
    -3.682866900       1.176191775       3.629910437       0.652474352       0.021360727      -0.000559526       0.037477252  0.99999960346048  6.07235570148215      0
    -1.476313223       1.176191775      -4.418111476       0.652474610       0.032336723      -0.001621491       0.037477252  1.00000000000000  6.07235570148215      0
    -3.682866900       1.176191775      -4.418111476       0.652474610       0.008655145      -0.000417514       0.037477252  1.00000000000000  6.07235570148215      0
     1.444420895       1.176191775       0.709176319       0.652194190       0.011998856       0.000086807       0.037477252  0.99957022008194  6.07235570148215      0
    -6.603601018       1.176191775       0.709176319       0.652474610       0.047839085      -0.002371661       0.037477252  1.00000000000000  6.07235570148215      0
     1.444420895       1.176191775      -1.497377358       0.652474610       0.051217195      -0.002650853       0.037477252  1.00000000000000  6.07235570148215      0
    -6.603601018       1.176191775      -1.497377358       0.652474610       0.018447350      -0.000620752       0.037477252  0.99999999990416  6.07235570148215      0
    -2.579590061       2.279468614       3.629910437       0.561209475       0.006269583       0.000424456       0.037477252  0.86012461844188  6.07235570148215      0
    -2.579590061       0.072914936       3.629910437       0.017430235      -0.004670235       0.000004011       0.037477252  0.02671404302050  6.07235570148215      0
    -2.579590061       2.279468614      -4.418111476       0.652468778       0.005635763       0.000221140       0.037477252  0.99999106194857  6.07235570148215      0
    -2.579590061       0.072914936      -4.418111476       0.652474610       0.022020897      -0.001032619       0.037477252  1.00000000000000  6.07235570148215      0
    -2.579590061       5.200202731       0.709176319       0.652367154       0.005587485       0.000288435       0.037477252  0.99983531033068  6.07235570148215      0
    -2.579590061      -2.847819181       0.709176319       0.652474610       0.002623875       0.000047739       0.037477252  0.99999999999566  6.07235570148215      0
    -2.579590061      -2.847819181      -1.497377358       0.245896598      -0.001818905       0.000190303       0.037477252  0.37686768755674  6.07235570148215      0
    -0.193346963       4.599016316      -0.394100519       0.781161232      -0.003969616       0.000780609       0.045249250  0.99159291820372  5.52631173115126      0
    -4.965833159       4.599016316      -0.394100519       0.787760423       0.020132871      -0.000464946       0.045249250  0.99996982018188  5.52631173115126      0
    -0.193346963      -2.246632766      -0.394100519       0.787784198       0.033727560      -0.002110007       0.045249250  1.00000000000000  5.52631173115126      0
     0.843234480       3.562434873      -0.394100519       0.787784198       0.014384158      -0.000823018       0.045249250  1.00000000000000  5.52631173115126      0
    -6.002414602       3.562434873      -0.394100519       0.787784198       0.041587857      -0.002483839       0.045249250  1.00000000000000  5.52631173115126      0
     0.843234480      -1.210051323      -0.394100519       0.787784198       0.040300265      -0.002345357       0.045249250  1.00000000000000  5.52631173115126      0
    -6.002414602      -1.210051323      -0.394100519       0.000303700      -0.003270184      -0.000000080       0.045249250  0.00038551120107  5.52631173115126      0
    -4.965833159       1.176191775       3.028724021       0.787784198       0.048142092      -0.002943249       0.045249250  1.00000000000000  5.52631173115126      0
    -0.193346963       1.176191775      -3.816925060       0.787784198       0.047554944      -0.002878478       0.045249250  1.00000000000000  5.52631173115126      0
    -4.965833159       1.176191775      -3.816925060       0.787784198       0.001179848       0.000136861       0.045249250  0.99999999988571  5.52631173115126      0
     0.843234480       1.176191775       1.992142579       0.000002930      -0.003512708      -0.000000003       0.045249250  0.00000371910517  5.52631173115126      0
    -6.002414602       1.176191775       1.992142579       0.787784198       0.056809870      -0.003532395       0.045249250  1.00000000000000  5.52631173115126      0
     0.843234480       1.176191775      -2.780343617       0.787784198       0.056116695      -0.003461238       0.045249250  1.00000000000000  5.52631173115126      0
    -6.002414602       1.176191775      -2.780343617       0.787783715       0.004523044       0.000145122       0.045249250  0.99999938727706  5.52631173115126      0
    -2.579590061       3.562434873       3.028724021       0.787784198       0.020035666      -0.000903927       0.045249250  0.99999999985696  5.52631173115126      0
    -2.579590061      -1.210051323       3.028724021       0.730922566      -0.004563400       0.000694271       0.045249250  0.92782080112040  5.52631173115126      0
    -2.579590061       3.562434873      -3.816925060       0.000041823      -0.007244029      -0.000000015       0.045249250  0.00005308933405  5.52631173115126      0
    -2.579590061      -1.210051323      -3.816925060       0.786795970       0.012447909       0.000083791       0.045249250  0.99874555966504  5.52631173115126      0
    -2.579590061       4.599016316       1.992142579       0.787784198       0.022710717      -0.001419338       0.045249250  1.00000000000000  5.52631173115126      0
    -2.579590061      -2.246632766       1.992142579       0.787784198       0.002059554       0.000012697       0.045249250  0.99999999999954  5.52631173115126      0
    -2.579590061      -2.246632766      -2.780343617       0.256155867       0.002320546       0.000057054       0.045249250  0.32515994589162  5.52631173115126      0
    -1.532274220       4.514507566       1.879368453       0.781378264       0.010716370      -0.000636377       0.044881302  1.00000000000000  5.54891853085275      0
    -3.626905903       4.514507566       1.879368453       0.781378264       0.035922124      -0.002204798       0.044881302  1.00000000000000  5.54891853085275      0
    -1.532274220      -2.162124016       1.879368453       0.781351779      -0.001053011       0.000563744       0.044881302  0.99996610399289  5.54891853085275      0
    -3.626905903      -2.162124016       1.879368453       0.781378264       0.005716010      -0.000285417       0.044881302  1.00000000000000  5.54891853085275      0
    -1.532274220      -2.162124016      -2.667569492       0.781378223       0.025346918      -0.000985956       0.044881302  0.99999994699965  5.54891853085275      0
    -1.532274220       3.449660747       2.944215272       0.777929602       0.002257423       0.000512259       0.044881302  0.99558643642164  5.54891853085275      0
    -3.626905903       3.449660747       2.944215272       0.781378264       0.038770684      -0.002297549       0.044881302  1.00000000000000  5.54891853085275      0
    -1.532274220      -1.097277197       2.944215272       0.001072450      -0.010878127       0.000000367       0.044881302  0.00137251051715  5.54891853085275      0
    -3.626905903      -1.097277197       2.944215272       0.781378264       0.010886872      -0.000428949       0.044881302  0.99999999991380  5.54891853085275      0
    -1.532274220       3.449660747      -3.732416310       0.001918031      -0.004178907       0.000000326       0.044881302  0.00245467625002  5.54891853085275      0
    -3.626905903       3.449660747      -3.732416310       0.024102179      -0.011237597       0.000016779       0.044881302  0.03084572477918  5.54891853085275      0
    -1.532274220      -1.097277197      -3.732416310       0.781378264       0.035265814      -0.001911657       0.044881302  1.00000000000000  5.54891853085275      0
    -3.626905903      -1.097277197      -3.732416310       0.089479766      -0.004691159       0.000057376       0.044881302  0.11451529924461  5.54891853085275      0
     0.758725730       2.223507617       1.879368453       0.057649956      -0.008688429       0.000050167       0.044881302  0.07377983101670  5.54891853085275      0
    -5.917905852       2.223507617       1.879368453       0.781378264       0.063855149      -0.003942912       0.044881302  1.00000000000000  5.54891853085275      0
     0.758725730       0.128875934       1.879368453       0.000003128      -0.001566036      -0.000000003       0.044881302  0.00000400272955  5.54891853085275      0
    -5.917905852       0.128875934       1.879368453       0.781378264       0.042559328      -0.002564844       0.044881302  1.00000000000000  5.54891853085275      0
     0.758725730       2.223507617      -2.667569492       0.781378264       0.039635288      -0.002249268       0.044881302  1.00000000000000  5.54891853085275      0
    -5.917905852       2.223507617      -2.667569492       0.781378264       0.013680346      -0.000832319       0.044881302  1.00000000000000  5.54891853085275      0
     0.758725730       0.128875934      -2.667569492       0.781378264       0.063873129      -0.003941986       0.044881302  1.00000000000000  5.54891853085275      0
    -5.917905852       0.128875934      -2.667569492       0.115154458      -0.008356045       0.000092429       0.044881302  0.14737351121168  5.54891853085275      0
     0.758725730       3.449660747       0.653215322       0.781378264       0.008132454      -0.000406120       0.044881302  1.00000000000000  5.54891853085275      0
    -5.917905852       3.449660747       0.653215322       0.781378264       0.055286381      -0.003381125       0.044881302  1.00000000000000  5.54891853085275      0
     0.758725730      -1.097277197       0.653215322       0.781339993       0.017207292      -0.000374330       0.044881302  0.99995101998118  5.54891853085275      0
    -5.917905852      -1.097277197       0.653215322       0.742469302       0.006895716       0.000262055       0.044881302  0.95020470344123  5.54891853085275      0
     0.758725730       3.449660747      -1.441416361       0.781378263       0.016833648      -0.000662776       0.044881302  0.99999999873523  5.54891853085275      0
    -5.917905852       3.449660747      -1.441416361       0.781378264       0.025940789      -0.001399736       0.044881302  1.00000000000000  5.54891853085275      0
     0.758725730      -1.097277197      -1.441416361       0.781378264       0.055982572      -0.003448000       0.044881302  1.00000000000000  5.54891853085275      0
    -4.853059033       2.223507617       2.944215272       0.781378264       0.053899932      -0.003272156       0.044881302  1.00000000000000  5.54891853085275      0
    -4.853059033       0.128875934       2.944215272       0.781378264       0.037376819      -0.002290229       0.044881302  1.00000000000000  5.54891853085275      0
    -0.306121089       2.223507617      -3.732416310       0.781378264       0.028308400      -0.001254556       0.044881302  0.99999999925456  5.54891853085275      0
    -4.853059033       2.223507617      -3.732416310       0.781378264       0.002607847      -0.000029289       0.044881302  0.99999999999993  5.54891853085275      0
    -0.306121089       0.128875934      -3.732416310       0.781378264       0.055804046      -0.003453735       0.044881302  1.00000000000000  5.54891853085275      0
    -4.853059033       0.128875934      -3.732416310       0.644740622      -0.007765983       0.000685877       0.044881302  0.82513252654908  5.54891853085275      0
    -0.306121089       4.514507566       0.653215322       0.781378264       0.001744892       0.000058215       0.044881302  0.99999999999605  5.54891853085275      0
    -4.853059033       4.514507566       0.653215322       0.781378264       0.036944946      -0.001994186       0.044881302  1.00000000000000  5.54891853085275      0
    -0.306121089      -2.162124016       0.653215322       0.781378264       0.017457989      -0.000844430       0.044881302  0.99999999999795  5.54891853085275      0
    -4.853059033      -2.162124016       0.653215322       0.350801490      -0.006314779       0.000316718       0.044881302  0.44895219830282  5.54891853085275      0
    -0.306121089       4.514507566      -1.441416361       0.050167078      -0.007896558       0.000041201       0.044881302  0.06420331852136  5.54891853085275      0
    -4.853059033       4.514507566      -1.441416361       0.494850320       0.003098802       0.000368337       0.044881302  0.63330443514411  5.54891853085275      0
    -0.306121089      -2.162124016      -1.441416361       0.781378264       0.043101973      -0.002652289       0.044881302  1.00000000000000  5.54891853085275      0
    -2.064890048       2.898490966       3.371354746       0.671648610       0.003459298       0.000514731       0.042629052  0.90498329984768  5.69361679665065      0
    -3.094290074       2.898490966       3.371354746       0.742166851       0.023504503      -0.000898940       0.042629052  0.99999999353671  5.69361679665065      0
    -2.064890048      -0.546107416       3.371354746       0.000462983      -0.008624779       0.000000035       0.042629052  0.00062382553727  5.69361679665065      0
    -3.094290074      -0.546107416       3.371354746       0.727703260       0.002006594       0.000468982       0.042629052  0.98051166542730  5.69361679665065      0
    -2.064890048       2.898490966      -4.159555785       0.429202478      -0.001674169       0.000307225       0.042629052  0.57830995045766  5.69361679665065      0
    -3.094290074       2.898490966      -4.159555785       0.540748721      -0.006160697       0.000586500       0.042629052  0.72860801729174  5.69361679665065      0
    -2.064890048      -0.546107416      -4.159555785       0.742166856       0.028423370      -0.001449461       0.042629052  1.00000000000000  5.69361679665065      0
    -3.094290074      -0.546107416      -4.159555785       0.742110119       0.008997715       0.000133476       0.042629052  0.99992355237725  5.69361679665065      0
    -2.064890048       4.941647040       1.328198671       0.742166856       0.011000133      -0.000473945       0.042629052  0.99999999999971  5.69361679665065      0
    -3.094290074       4.941647040       1.328198671       0.742166856       0.021265378      -0.001037114       0.042629052  0.99999999999997  5.69361679665065      0
    -2.064890048      -2.589263490       1.328198671       0.742166856       0.004819599      -0.000228324       0.042629052  1.00000000000000  5.69361679665065      0
    -3.094290074      -2.589263490       1.328198671       0.742166856       0.001990604       0.000022874       0.042629052  0.99999999999988  5.69361679665065      0
    -2.064890048      -2.589263490      -2.116399710       0.727994426       0.009415355       0.000186781       0.042629052  0.98090398454479  5.69361679665065      0
    -3.094290074      -2.589263490      -2.116399710       0.000072407      -0.003811042      -0.000000018       0.042629052  0.00009756124345  5.69361679665065      0
    -4.301889252       1.690891788       3.371354746       0.742166856       0.039580187      -0.002093270       0.042629052  1.00000000000000  5.69361679665065      0
    -4.301889252       0.661491762       3.371354746       0.742166856       0.031812661      -0.001622640       0.042629052  1.00000000000000  5.69361679665065      0
    -0.857290871       1.690891788      -4.159555785       0.742166856       0.032075542      -0.001641619       0.042629052  1.00000000000000  5.69361679665065      0
    -4.301889252       1.690891788      -4.159555785       0.742166856       0.003869694      -0.000166207       0.042629052  1.00000000000000  5.69361679665065      0
    -0.857290871       0.661491762      -4.159555785       0.742166856       0.045334026      -0.002661521       0.042629052  1.00000000000000  5.69361679665065      0
    -4.301889252       0.661491762      -4.159555785       0.742166844       0.001763105       0.000210146       0.042629052  0.99999998382069  5.69361679665065      0
    -0.857290871       4.941647040       0.120599494       0.733383309      -0.005626946       0.000798227       0.042629052  0.98816499711540  5.69361679665065      0
    -4.301889252       4.941647040       0.120599494       0.741987431       0.016681314      -0.000228132       0.042629052  0.99975824212672  5.69361679665065      0
    -0.857290871      -2.589263490       0.120599494       0.742166856       0.021532099      -0.001270625       0.042629052  1.00000000000000  5.69361679665065      0
    -4.301889252      -2.589263490       0.120599494       0.010241464      -0.011077374       0.000007559       0.042629052  0.01379940895888  5.69361679665065      0
    -0.857290871       4.941647040      -0.908800532       0.003857488      -0.010995142       0.000002166       0.042629052  0.00519760178750  5.69361679665065      0
    -4.301889252       4.941647040      -0.908800532       0.113854924       0.000743318       0.000077082       0.042629052  0.15340879654143  5.69361679665065      0
    -0.857290871      -2.589263490      -0.908800532       0.742166856       0.029751878      -0.001692069       0.042629052  1.00000000000000  5.69361679665065      0
     1.185865204       1.690891788       1.328198671       0.446740920      -0.001302794       0.000422962       0.042629052  0.60194135156335  5.69361679665065      0
    -6.345045326       1.690891788       1.328198671       0.742166856       0.058971278      -0.003440673       0.042629052  1.00000000000000  5.69361679665065      0
     1.185865204       0.661491762       1.328198671       0.107398218      -0.000383344       0.000057755       0.042629052  0.14470899316763  5.69361679665065      0
    -6.345045326       0.661491762       1.328198671       0.742166856       0.046782456      -0.002634927       0.042629052  1.00000000000000  5.69361679665065      0
     1.185865204       1.690891788      -2.116399710       0.742166856       0.049394178      -0.002881715       0.042629052  1.00000000000000  5.69361679665065      0
    -6.345045326       1.690891788      -2.116399710       0.742166856       0.017355335      -0.000887884       0.042629052  1.00000000000000  5.69361679665065      0
     1.185865204       0.661491762      -2.116399710       0.742166856       0.059718789      -0.003504143       0.042629052  1.00000000000000  5.69361679665065      0
    -6.345045326       0.661491762      -2.116399710       0.733516398       0.002736892       0.000555312       0.042629052  0.98834432274419  5.69361679665065      0
     1.185865204       2.898490966       0.120599494       0.742166856       0.017419596      -0.000966168       0.042629052  1.00000000000000  5.69361679665065      0
    -6.345045326       2.898490966       0.120599494       0.742166856       0.052668693      -0.003096078       0.042629052  1.00000000000000  5.69361679665065      0
     1.185865204      -0.546107416       0.120599494       0.742166856       0.029170517      -0.001247651       0.042629052  0.99999999985581  5.69361679665065      0
    -6.345045326      -0.546107416       0.120599494       0.691889714       0.009064518       0.000195432       0.042629052  0.93225628280731  5.69361679665065      0
     1.185865204       2.898490966      -0.908800532       0.742166856       0.026678688      -0.001553554       0.042629052  1.00000000000000  5.69361679665065      0
    -6.345045326       2.898490966      -0.908800532       0.742166856       0.038905438      -0.002289004       0.042629052  1.00000000000000  5.69361679665065      0
     1.185865204      -0.546107416      -0.908800532       0.742166856       0.049974830      -0.002840732       0.042629052  1.00000000000000  5.69361679665065      0
    -6.345045326      -0.546107416      -0.908800532       0.011221087      -0.002169061       0.000000477       0.042629052  0.01511935945464  5.69361679665065      0
     1.461377324       0.787523693       2.130464121       0.299335400      -0.012552049       0.000711789       0.048107466  0.99999999999999  8.95788869766420      1
    -1.033061173      -1.706914804       2.130464121       0.091615315      -0.007092688       0.000124989       0.048107466  0.30606241427990  8.95788869766420      1
    -1.033061173       0.787523693       4.624902617       0.299335400      -0.017504602       0.000569964       0.048107466  1.00000000000000  8.95788869766420      1
     0.407103565       2.227688431       3.570628858       0.765779833      -0.018534929       0.001605414       0.123071735  0.99999999999953  5.60057658145144      1
    -2.473225910       2.227688431       3.570628858       0.223171478       0.005246419       0.000004177       0.123071735  0.29143034166633  5.60057658145144      1
     0.407103565      -0.652641044       3.570628858       0.765779833      -0.018356960       0.001393820       0.123071735  1.00000000000000  5.60057658145144      1
    -2.473225910      -0.652641044       3.570628858       0.718872396      -0.009264478       0.001399906       0.123071735  0.93874553114200  5.60057658145144      1
     0.407103565      -0.652641044       0.690299383       0.000023212       0.027405271      -0.000000087       0.123071735  0.00003031222354  5.60057658145144      1
    -0.571301606       1.249283260       4.537906668       0.642082024      -0.018063886       0.001127164       0.103191734  1.00000000000000  6.11630940385212      1
    -1.494820740       1.249283260       4.537906668       0.642082024      -0.015422667       0.001307533       0.103191734  0.99999999999998  6.11630940385212      1
    -0.571301606       0.325764126       4.537906668       0.642082024      -0.018513201       0.001080217       0.103191734  1.00000000000000  6.11630940385212      1
    -1.494820740       0.325764126       4.537906668       0.642082024      -0.016686535       0.001268554       0.103191734  1.00000000000000  6.11630940385212      1
    -0.571301606       3.194966240       2.592223688       0.221418638      -0.007458934       0.000204104       0.103191734  0.34484478508082  6.11630940385212      1
    -1.494820740       3.194966240       2.592223688       0.000133128       0.009063486      -0.000000233       0.103191734  0.00020733856100  6.11630940385212      1
    -0.571301606      -1.619918854       2.592223688       0.641802083      -0.014068419       0.001641802       0.103191734  0.99956400996595  6.11630940385212      1
    -1.494820740      -1.619918854       2.592223688       0.447996510      -0.010653558       0.000740667       0.103191734  0.69772473417074  6.11630940385212      1
    -0.571301606      -1.619918854       1.668704554       0.054086753      -0.000573653       0.000001908       0.103191734  0.08423651723120  6.11630940385212      1
    -1.494820740      -1.619918854       1.668704554       0.000001321       0.009291760      -0.000000003       0.103191734  0.00000205726909  6.11630940385212      1
     1.374381375       1.249283260       2.592223688       0.642082024      -0.015830990       0.001380635       0.103191734  0.99999999999369  6.11630940385212      1
     1.374381375       0.325764126       2.592223688       0.642082024      -0.015276435       0.001319513       0.103191734  0.99999999999993  6.11630940385212      1
     1.374381375       1.249283260       1.668704554       0.637973882      -0.007700952       0.001379029       0.103191734  0.99360184308438  6.11630940385212      1
     1.374381375       0.325764126       1.668704554       0.641608079      -0.007175799       0.001467084       0.103191734  0.99926186179648  6.11630940385212      1
     0.689151669       2.509736535       2.669156303       0.777404938      -0.016096212       0.002028181       0.124945097  0.99995964999921  5.55843194962580      1
     0.689151669      -0.934689149       2.669156303       0.777436307      -0.015346031       0.001682917       0.124945097  0.99999999955715  5.55843194962580      1
    -2.755274015      -0.934689149       2.669156303       0.000165531       0.007922168      -0.000000297       0.124945097  0.00021291902982  5.55843194962580      1
     0.689151669       2.509736535       1.591771938       0.131217102      -0.003846582       0.000090204       0.124945097  0.16878180318196  5.55843194962580      1
     0.689151669      -0.934689149       1.591771938       0.729495864      -0.004146984       0.001371262       0.124945097  0.93833521418768  5.55843194962580      1
     0.689151669       1.326215876       3.852676963       0.777436307      -0.018876590       0.001355361       0.124945097  1.00000000000000  5.55843194962580      1
    -2.755274015       1.326215876       3.852676963       0.572715937       0.000982469       0.000662426       0.124945097  0.73667248624229  5.55843194962580      1
     0.689151669       0.248831511       3.852676963       0.777436307      -0.018650311       0.001277579       0.124945097  1.00000000000000  5.55843194962580      1
    -2.755274015       0.248831511       3.852676963       0.714457178      -0.004647888       0.001272398       0.124945097  0.91899126805417  5.55843194962580      1
    -0.494368990       2.509736535       3.852676963       0.777436305      -0.016743717       0.001743764       0.124945097  0.99999999739051  5.55843194962580      1
    -1.571753355       2.509736535       3.852676963       0.776622455      -0.009939998       0.001759144       0.124945097  0.99895315904965  5.55843194962580      1
    -0.494368990      -0.934689149       3.852676963       0.777436307      -0.018779040       0.001523471       0.124945097  1.00000000000000  5.55843194962580      1
    -1.571753355      -0.934689149       3.852676963       0.777436265      -0.016956542       0.001820280       0.124945097  0.99999994600825  5.55843194962580      1
    -0.046038118       1.774546748       4.197779867       0.750277249      -0.018562286       0.001377763       0.120580249  1.00000000000000  5.65814162659597      1
    -2.020084227       1.774546748       4.197779867       0.750246144      -0.009797560       0.001755315       0.120580249  0.99995854227485  5.65814162659597      1
    -0.046038118      -0.199499361       4.197779867       0.750277249      -0.018916460       0.001250678       0.120580249  1.00000000000000  5.65814162659597      1
    -2.020084227      -0.199499361       4.197779867       0.750277185      -0.014703883       0.001726247       0.120580249  0.99999991506896  5.65814162659597      1
    -0.046038118       2.854839439       3.117487175       0.750216938      -0.015909853       0.001955598       0.120580249  0.99991961585420  5.65814162659597      1
    -2.020084227       2.854839439       3.117487175       0.020437351       0.007716451      -0.000016315       0.120580249  0.02723973188626  5.65814162659597      1
    -0.046038118      -1.279792053       3.117487175       0.750277249      -0.017345167       0.001629357       0.120580249  0.99999999994279  5.65814162659597      1
    -2.020084227      -1.279792053       3.117487175       0.662901246      -0.011533665       0.001239138       0.120580249  0.88354171321821  5.65814162659597      1
    -0.046038118      -1.279792053       1.143441066       0.003613656       0.011422366      -0.000004763       0.120580249  0.00481642791017  5.65814162659597      1
     1.034254573       1.774546748       3.117487175       0.750277249      -0.017990359       0.001559365       0.120580249  0.99999999999973  5.65814162659597      1
    -3.100376919       1.774546748       3.117487175       0.000001739       0.033935893      -0.000000009       0.120580249  0.00000231806631  5.65814162659597      1
     1.034254573      -0.199499361       3.117487175       0.750277249      -0.017184340       0.001406759       0.120580249  1.00000000000000  5.65814162659597      1
    -3.100376919      -0.199499361       3.117487175       0.001300706       0.011454929      -0.000002088       0.120580249  0.00173363355299  5.65814162659597      1
     1.034254573       1.774546748       1.143441066       0.041173068       0.004409412      -0.000011847       0.120580249  0.05487713806379  5.65814162659597      1
     1.034254573      -0.199499361       1.143441066       0.348317515       0.004253964       0.000143060       0.120580249  0.46425173596361  5.65814162659597      1
     0.160200948       2.978037086       2.130464121       0.297945080      -0.008725418       0.000387865       0.121830917  0.39303669845452  5.62902457773842      1
     0.160200948      -1.402989700       2.130464121       0.756431100      -0.010762057       0.001770950       0.121830917  0.99785229585736  5.62902457773842      1
    -2.226323294      -1.402989700       2.130464121       0.000005211       0.008219781      -0.000000012       0.121830917  0.00000687419659  5.62902457773842      1
     1.157452220       1.980785814       2.130464121       0.757625488      -0.012969946       0.001887580       0.121830917  0.99942788269213  5.62902457773842      1
     1.157452220      -0.405738428       2.130464121       0.758058670      -0.011776000       0.001739603       0.121830917  0.99999931785464  5.62902457773842      1
     0.160200948       0.787523693       4.320977514       0.758059187      -0.018853806       0.001223051       0.121830917  1.00000000000000  5.62902457773842      1
    -2.226323294       0.787523693       4.320977514       0.758057166      -0.011429678       0.001757842       0.121830917  0.99999733426268  5.62902457773842      1
     1.157452220       0.787523693       3.323726242       0.758059187      -0.017987300       0.001378508       0.121830917  1.00000000000000  5.62902457773842      1
    -3.223574566       0.787523693       3.323726242       0.000958209       0.019215320      -0.000002063       0.121830917  0.00126402986055  5.62902457773842      1
     1.157452220       0.787523693       0.937202000       0.052227176       0.009691055      -0.000018571       0.121830917  0.06889590867202  5.62902457773842      1
    -1.033061173       1.980785814       4.320977514       0.758059187      -0.016041299       0.001582514       0.121830917  0.99999999999486  5.62902457773842      1
    -1.033061173      -0.405738428       4.320977514       0.758059187      -0.018334149       0.001452655       0.121830917  1.00000000000000  5.62902457773842      1
    -1.033061173       2.978037086       3.323726242       0.736381786      -0.010321863       0.001615685       0.121830917  0.97140407851528  5.62902457773842      1
    -1.033061173      -1.402989700       3.323726242       0.758058721      -0.017228004       0.001860048       0.121830917  0.99999938504865  5.62902457773842      1
     0.041029898       3.788412993      -1.835264549       0.001595101       0.005864048      -0.000001505       0.048107466  0.00532880759916  8.95788869766420      2
    -4.947847096       3.788412993      -1.835264549       0.000000621       0.013031843      -0.000000002       0.048107466  0.00000207433234  8.95788869766420      2
    -2.453408599       6.282851490      -1.835264549       0.299335400      -0.018386258       0.000560084       0.048107466  1.00000000000000  8.95788869766420      2
    -2.453408599       3.788412993      -4.329703046       0.299335400      -0.014548914       0.000747100       0.048107466  0.99999999999875  8.95788869766420      2
    -1.013243861       5.228577731      -0.395099811       0.699552297      -0.012588817       0.001455349       0.123071735  0.91351621816556  5.60057658145144      2
    -3.893573337       5.228577731      -0.395099811       0.578965863       0.000106478       0.000808895       0.123071735  0.75604741464488  5.60057658145144      2
    -1.013243861       5.228577731      -3.275429286       0.765779833      -0.017162250       0.001448769       0.123071735  1.00000000000000  5.60057658145144      2
    -3.893573337       5.228577731      -3.275429286       0.765779833      -0.018081359       0.001530588       0.123071735  0.99999999999999  5.60057658145144      2
    -1.991649032       4.250172561      -4.242707096       0.642082024      -0.015860431       0.001377847       0.103191734  0.99999999999532  6.11630940385212      2
    -2.915168166       4.250172561      -4.242707096       0.642082024      -0.017436784       0.001419516       0.103191734  0.99999999998110  6.11630940385212      2
    -1.991649032       3.326653426      -4.242707096       0.636526729      -0.008615841       0.001368051       0.103191734  0.99134799757732  6.11630940385212      2
    -2.915168166       3.326653426      -4.242707096       0.632024552      -0.011703717       0.001370325       0.103191734  0.98433615639523  6.11630940385212      2
    -1.991649032       6.195855541      -1.373504982       0.642082024      -0.018308547       0.001270932       0.103191734  1.00000000000000  6.11630940385212      2
    -2.915168166       6.195855541      -1.373504982       0.642082024      -0.016908009       0.001271182       0.103191734  1.00000000000000  6.11630940385212      2
    -1.991649032       6.195855541      -2.297024116       0.642082024      -0.018889597       0.001079974       0.103191734  1.00000000000000  6.11630940385212      2
    -2.915168166       6.195855541      -2.297024116       0.642082024      -0.018321975       0.001090196       0.103191734  1.00000000000000  6.11630940385212      2
    -0.045966052       4.250172561      -1.373504982       0.174294905      -0.002632497       0.000139426       0.103191734  0.27145270940521  6.11630940385212      2
    -4.860851146       4.250172561      -1.373504982       0.017877188       0.010413837      -0.000013799       0.103191734  0.02784253072474  6.11630940385212      2
    -0.045966052       4.250172561      -2.297024116       0.630469336      -0.006798810       0.001289182       0.103191734  0.98191401113136  6.11630940385212      2
    -4.860851146       4.250172561      -2.297024116       0.521400020      -0.004983056       0.000858076       0.103191734  0.81204581395342  6.11630940385212      2
    -0.045966052       3.326653426      -2.297024116       0.000964663       0.016320381      -0.000001722       0.103191734  0.00150239850813  6.11630940385212      2
    -4.860851146       3.326653426      -2.297024116       0.000004003       0.014817046      -0.000000012       0.103191734  0.00000623486433  6.11630940385212      2
    -0.731195757       5.510625835      -1.296572366       0.777435962      -0.017028582       0.001901332       0.124945097  0.99999955562097  5.55843194962580      2
    -4.175621441       5.510625835      -1.296572366       0.777425739      -0.010342241       0.001828991       0.124945097  0.99998640680212  5.55843194962580      2
    -0.731195757       5.510625835      -2.373956731       0.777436307      -0.017604202       0.001573187       0.124945097  0.99999999999992  5.55843194962580      2
    -4.175621441       5.510625835      -2.373956731       0.777436307      -0.015792337       0.001624942       0.124945097  0.99999999998988  5.55843194962580      2
    -0.731195757       4.327105176      -0.113051707       0.000024778       0.006593336      -0.000000048       0.124945097  0.00003187094214  5.55843194962580      2
    -4.175621441       4.327105176      -0.113051707       0.000000294       0.037895681      -0.000000002       0.124945097  0.00000037760037  5.55843194962580      2
    -0.731195757       4.327105176      -3.557477391       0.777436224      -0.012483073       0.001760860       0.124945097  0.99999989312730  5.55843194962580      2
    -4.175621441       4.327105176      -3.557477391       0.777433313      -0.016465194       0.001950970       0.124945097  0.99999614824889  5.55843194962580      2
    -0.731195757       3.249720811      -3.557477391       0.478507541       0.002345602       0.000400303       0.124945097  0.61549420391020  5.55843194962580      2
    -4.175621441       3.249720811      -3.557477391       0.232238414      -0.007931958       0.000188182       0.124945097  0.29872339653583  5.55843194962580      2
    -1.914716416       5.510625835      -0.113051707       0.745756445      -0.011302417       0.001628913       0.124945097  0.95925085873511  5.55843194962580      2
    -2.992100781       5.510625835      -0.113051707       0.725296016      -0.006208795       0.001438943       0.124945097  0.93293303776231  5.55843194962580      2
    -1.914716416       5.510625835      -3.557477391       0.777436307      -0.018501169       0.001305708       0.124945097  1.00000000000000  5.55843194962580      2
    -2.992100781       5.510625835      -3.557477391       0.777436307      -0.018913644       0.001335884       0.124945097  1.00000000000000  5.55843194962580      2
    -1.466385545       4.775436048       0.232051197       0.001759198       0.001541161      -0.000001408       0.120580249  0.00234473067854  5.65814162659597      2
    -3.440431653       4.775436048       0.232051197       0.000298757       0.019274074      -0.000000720       0.120580249  0.00039819592830  5.65814162659597      2
    -1.466385545       4.775436048      -3.902580295       0.750277249      -0.016627328       0.001467738       0.120580249  1.00000000000000  5.65814162659597      2
    -3.440431653       4.775436048      -3.902580295       0.750277249      -0.018607727       0.001544428       0.120580249  0.99999999999994  5.65814162659597      2
    -1.466385545       2.801389939      -3.902580295       0.087648065       0.006402491      -0.000006771       0.120580249  0.11682090267759  5.65814162659597      2
    -3.440431653       2.801389939      -3.902580295       0.034129553      -0.003193262       0.000005504       0.120580249  0.04548925444775  5.65814162659597      2
    -1.466385545       5.855728740      -0.848241494       0.750277199      -0.017306740       0.001778036       0.120580249  0.99999993296557  5.65814162659597      2
    -3.440431653       5.855728740      -0.848241494       0.750276805      -0.012413841       0.001750944       0.120580249  0.99999940842187  5.65814162659597      2
    -1.466385545       5.855728740      -2.822287603       0.750277249      -0.018649347       0.001278700       0.120580249  1.00000000000000  5.65814162659597      2
    -3.440431653       5.855728740      -2.822287603       0.750277249      -0.018272901       0.001316013       0.120580249  1.00000000000000  5.65814162659597      2
    -0.386092853       4.775436048      -0.848241494       0.527934805      -0.009581299       0.000853804       0.120580249  0.70365295691585  5.65814162659597      2
    -4.520724345       4.775436048      -0.848241494       0.240941111       0.005937646       0.000112930       0.120580249  0.32113610241458  5.65814162659597      2
    -0.386092853       4.775436048      -2.822287603       0.750277237      -0.013973669       0.001678194       0.120580249  0.99999998453471  5.65814162659597      2
    -4.520724345       4.775436048      -2.822287603       0.750276109      -0.014501010       0.001811530       0.120580249  0.99999848073524  5.65814162659597      2
    -0.386092853       2.801389939      -2.822287603       0.000012349       0.030021975      -0.000000051       0.120580249  0.00001645977195  5.65814162659597      2
    -1.260146478       5.978926386      -1.835264549       0.758059187      -0.018742420       0.001483504       0.121830917  1.00000000000000  5.62902457773842      2
    -3.646670720       5.978926386      -1.835264549       0.758059187      -0.016218380       0.001499141       0.121830917  0.99999999999998  5.62902457773842      2
    -0.262895206       4.981675115      -1.835264549       0.758040566      -0.014131592       0.001890455       0.121830917  0.99997543663742  5.62902457773842      2
    -4.643921992       4.981675115      -1.835264549       0.757344702      -0.008705030       0.001721435       0.121830917  0.99905748190370  5.62902457773842      2
    -1.260146478       3.788412993      -4.025777942       0.758024669      -0.010348967       0.001801139       0.121830917  0.99995446523674  5.62902457773842      2
    -3.646670720       3.788412993      -4.025777942       0.757799678      -0.015679613       0.001966746       0.121830917  0.99965766688335  5.62902457773842      2
    -0.262895206       3.788412993      -3.028526670       0.716780490      -0.003112624       0.001313952       0.121830917  0.94554686852988  5.62902457773842      2
    -4.643921992       3.788412993      -3.028526670       0.545596373      -0.008485586       0.000821612       0.121830917  0.71972793519490  5.62902457773842      2
    -2.453408599       4.981675115       0.355248844       0.007633486       0.005511772      -0.000005381       0.121830917  0.01006977627020  5.62902457773842      2
    -2.453408599       4.981675115      -4.025777942       0.758059187      -0.018404195       0.001406589       0.121830917  1.00000000000000  5.62902457773842      2
    -2.453408599       2.595150872      -4.025777942       0.011640983       0.004703019      -0.000006357       0.121830917  0.01535629812455  5.62902457773842      2
    -2.453408599       5.978926386      -0.642002428       0.758059044      -0.015198962       0.001769350       0.121830917  0.99999981229750  5.62902457773842      2
    -2.453408599       5.978926386      -3.028526670       0.758059187      -0.018865747       0.001212598       0.121830917  1.00000000000000  5.62902457773842      2
    -6.747133732      -1.047371792      -1.476998367       0.299335400      -0.013239198       0.000696325       0.048107466  1.00000000000000  8.95788869766420      3
    -4.252695235      -3.541810289      -1.476998367       0.299335400      -0.018057779       0.000629116       0.048107466  1.00000000000000  8.95788869766420      3
    -4.252695235      -1.047371792      -3.971436864       0.299334622      -0.012321543       0.000784563       0.048107466  0.99999740105573  8.95788869766420      3
    -2.812530498      -2.487536530      -0.036833630       0.000048304       0.007964397      -0.000000094       0.123071735  0.00006307827349  5.60057658145144      3
    -5.692859973      -2.487536530      -0.036833630       0.765779726      -0.015106087       0.001786963       0.123071735  0.99999986045660  5.60057658145144      3
    -5.692859973       0.392792945      -2.917163105       0.183404086      -0.005816976       0.000133369       0.123071735  0.23949976007039  5.60057658145144      3
    -2.812530498      -2.487536530      -2.917163105       0.756018256      -0.004836411       0.001557520       0.123071735  0.98725276313969  5.60057658145144      3
    -5.692859973      -2.487536530      -2.917163105       0.765779833      -0.018906197       0.001271278       0.123071735  1.00000000000000  5.60057658145144      3
    -4.714454802      -1.509131360       0.930444180       0.000005922       0.014249228      -0.000000016       0.103191734  0.00000922283850  6.11630940385212      3
    -3.790935668      -0.585612225      -3.884440915       0.158062539      -0.002385800       0.000079147       0.103191734  0.24617187932400  6.11630940385212      3
    -4.714454802      -0.585612225      -3.884440915       0.637374179      -0.013164233       0.001448714       0.103191734  0.99266784413951  6.11630940385212      3
    -3.790935668      -1.509131360      -3.884440915       0.641877506      -0.010611715       0.001523753       0.103191734  0.99968147751215  6.11630940385212      3
    -4.714454802      -1.509131360      -3.884440915       0.642082024      -0.016601903       0.001432998       0.103191734  0.99999999978197  6.11630940385212      3
    -3.790935668      -3.454814340      -1.015238800       0.642082019      -0.016527372       0.001508395       0.103191734  0.99999999246025  6.11630940385212      3
    -4.714454802      -3.454814340      -1.015238800       0.642082024      -0.018673481       0.001283583       0.103191734  1.00000000000000  6.11630940385212      3
    -3.790935668      -3.454814340      -1.938757934       0.642082024      -0.016500485       0.001338274       0.103191734  0.99999999999994  6.11630940385212      3
    -4.714454802      -3.454814340      -1.938757934       0.642082024      -0.018578030       0.001130938       0.103191734  1.00000000000000  6.11630940385212      3
    -6.660137782      -0.585612225      -1.015238800       0.640032738      -0.006174168       0.001387061       0.103191734  0.99680837395717  6.11630940385212      3
    -6.660137782      -1.509131360      -1.015238800       0.642082024      -0.013839622       0.001369591       0.103191734  0.99999999996032  6.11630940385212      3
    -6.660137782      -0.585612225      -1.938757934       0.642080727      -0.012458056       0.001514419       0.103191734  0.99999798014892  6.11630940385212      3
    -6.660137782      -1.509131360      -1.938757934       0.642082024      -0.016693865       0.001263300       0.103191734  1.00000000000000  6.11630940385212      3
    -2.530482393      -2.769584634      -0.938306185       0.053326349       0.002292498      -0.000003105       0.124945097  0.06859256362574  5.55843194962580      3
    -5.974908077      -2.769584634      -0.938306185       0.777436307      -0.017936392       0.001459007       0.124945097  1.00000000000000  5.55843194962580      3
    -5.974908077       0.674841050      -2.015690550       0.001194845       0.009938779      -0.000001803       0.124945097  0.00153690460334  5.55843194962580      3
    -2.530482393      -2.769584634      -2.015690550       0.598199338      -0.001538000       0.000803253       0.124945097  0.76945124916494  5.55843194962580      3
    -5.974908077      -2.769584634      -2.015690550       0.777436307      -0.018739546       0.001265175       0.124945097  1.00000000000000  5.55843194962580      3
    -5.974908077      -0.508679610       0.245214475       0.003806794       0.017753812      -0.000006654       0.124945097  0.00489659947391  5.55843194962580      3
    -5.974908077      -1.586063975       0.245214475       0.758567427      -0.006261880       0.001500075       0.124945097  0.97572935604123  5.55843194962580      3
    -5.974908077      -0.508679610      -3.199211209       0.777428642      -0.016271212       0.001944285       0.124945097  0.99999013984420  5.55843194962580      3
    -2.530482393      -1.586063975      -3.199211209       0.024988776       0.013052820      -0.000017859       0.124945097  0.03214253848583  5.55843194962580      3
    -5.974908077      -1.586063975      -3.199211209       0.777436307      -0.018756273       0.001506147       0.124945097  1.00000000000000  5.55843194962580      3
    -3.714003053      -2.769584634       0.245214475       0.346365478      -0.009187260       0.000354188       0.124945097  0.44552264238888  5.55843194962580      3
    -4.791387418      -2.769584634       0.245214475       0.776713161      -0.014572565       0.001978347       0.124945097  0.99906983250193  5.55843194962580      3
    -4.791387418       0.674841050      -3.199211209       0.000003438       0.008999220      -0.000000009       0.124945097  0.00000442190098  5.55843194962580      3
    -3.714003053      -2.769584634      -3.199211209       0.777436307      -0.014501365       0.001647295       0.124945097  0.99999999983888  5.55843194962580      3
    -4.791387418      -2.769584634      -3.199211209       0.777436307      -0.018073132       0.001377673       0.124945097  1.00000000000000  5.55843194962580      3
    -5.239718289      -2.034394847       0.590317379       0.610701709      -0.006855911       0.000998041       0.120580249  0.81396804997876  5.65814162659597      3
    -5.239718289      -0.060348738      -3.544314114       0.641214112      -0.011984000       0.001162938       0.120580249  0.85463622005159  5.65814162659597      3
    -3.265672181      -2.034394847      -3.544314114       0.749330543      -0.007936318       0.001697415       0.120580249  0.99873819147552  5.65814162659597      3
    -5.239718289      -2.034394847      -3.544314114       0.750277249      -0.018498660       0.001422993       0.120580249  1.00000000000000  5.65814162659597      3
    -3.265672181      -3.114687539      -0.489975313       0.688751706      -0.010996408       0.001411361       0.120580249  0.91799625676946  5.65814162659597      3
    -5.239718289      -3.114687539      -0.489975313       0.750277249      -0.018123609       0.001581871       0.120580249  0.99999999999887  5.65814162659597      3
    -3.265672181      -3.114687539      -2.464021422       0.750277138      -0.012781154       0.001712628       0.120580249  0.99999985254477  5.65814162659597      3
    -5.239718289      -3.114687539      -2.464021422       0.750277249      -0.018772911       0.001217251       0.120580249  1.00000000000000  5.65814162659597      3
    -6.320010981      -0.060348738      -0.489975313       0.023852576       0.013245312      -0.000020695       0.120580249  0.03179168181193  5.65814162659597      3
    -6.320010981      -2.034394847      -0.489975313       0.750277248      -0.014533006       0.001623117       0.120580249  0.99999999933453  5.65814162659597      3
    -6.320010981      -0.060348738      -2.464021422       0.740418616      -0.010666440       0.001707142       0.120580249  0.98686001302403  5.65814162659597      3
    -2.185379489      -2.034394847      -2.464021422       0.002945374       0.018372113      -0.000005003       0.120580249  0.00392571358100  5.65814162659597      3
    -6.320010981      -2.034394847      -2.464021422       0.750277249      -0.018493340       0.001312756       0.120580249  1.00000000000000  5.65814162659597      3
    -3.059433114      -3.237885185      -1.476998367       0.757473507      -0.011338375       0.001812582       0.121830917  0.99922739530211  5.62902457773842      3
    -5.445957356      -3.237885185      -1.476998367       0.758059187      -0.018899507       0.001309624       0.121830917  1.00000000000000  5.62902457773842      3
    -6.443208628       0.145890329      -1.476998367       0.307854504       0.001287287       0.000129920       0.121830917  0.40610879698341  5.62902457773842      3
    -2.062181842      -2.240633914      -1.476998367       0.000004363       0.026159920      -0.000000018       0.121830917  0.00000575575697  5.62902457773842      3
    -6.443208628      -2.240633914      -1.476998367       0.758059187      -0.017521941       0.001382702       0.121830917  1.00000000000000  5.62902457773842      3
    -5.445957356      -1.047371792       0.713515026       0.000955206       0.015688598      -0.000001859       0.121830917  0.00126006719921  5.62902457773842      3
    -3.059433114      -1.047371792      -3.667511760       0.052306653       0.006788576      -0.000008052       0.121830917  0.06900075133743  5.62902457773842      3
    -5.445957356      -1.047371792      -3.667511760       0.758059182      -0.017775316       0.001751331       0.121830917  0.99999999333776  5.62902457773842      3
    -6.443208628      -1.047371792      -0.283736246       0.749529405      -0.005094192       0.001478976       0.121830917  0.98874786793382  5.62902457773842      3
    -6.443208628      -1.047371792      -2.670260488       0.758059187      -0.017167672       0.001623501       0.121830917  0.99999999998313  5.62902457773842      3
    -4.252695235      -2.240633914       0.713515026       0.035792031      -0.002773869       0.000005701       0.121830917  0.04721535125257  5.62902457773842      3
    -4.252695235       0.145890329      -3.667511760       0.001801508       0.002143124      -0.000001482       0.121830917  0.00237647447741  5.62902457773842      3
    -4.252695235      -2.240633914      -3.667511760       0.758059187      -0.015996552       0.001588525       0.121830917  0.99999999999195  5.62902457773842      3
    -4.252695235      -3.237885185      -0.283736246       0.758054537      -0.016808096       0.001924632       0.121830917  0.99999386624100  5.62902457773842      3
    -4.252695235      -3.237885185      -2.670260488       0.758059187      -0.017375398       0.001409409       0.121830917  1.00000000000000  5.62902457773842      3

