Corrected dielectric energy   =     -0.025944709
Total C-PCM charge            =     -0.000000000
C-PCM corrected charges:
    -0.000000000
     0.000000040
     0.000000002
    -0.001812184
     0.000000036
     0.000043038
     0.000010322
     0.000000003
    -0.002676332
    -0.004848754
     0.000000028
    -0.000179212
     0.000000001
     0.000001316
    -0.000000108
    -0.003492316
     0.000001726
    -0.002967376
    -0.000000001
    -0.003097101
     0.000017645
    -0.000000073
     0.000000040
    -0.001247975
    -0.000000050
     0.000000000
    -0.000967234
     0.000003214
    -0.000000000
    -0.000963412
     0.000009610
    -0.000000006
     0.000000174
     0.000000001
    -0.002964065
     0.000006527
     0.000000000
    -0.000000563
     0.000000003
     0.000001064
     0.000000417
    -0.002560626
    -0.000016306
    -0.001103058
     0.000000320
     0.000000000
     0.000000001
    -0.000045440
    -0.000000096
    -0.000041681
    -0.000190652
     0.000003156
     0.000006357
    -0.004855374
    -0.003857623
    -0.007041426
     0.000000148
     0.000000786
    -0.000000009
    -0.000002068
    -0.000034750
     0.000000047
    -0.003525730
    -0.004505490
    -0.000000001
    -0.000012827
    -0.003042441
    -0.000045212
    -0.000001889
    -0.002927870
    -0.000000158
     0.000000448
    -0.001371914
     0.000000000
    -0.000000107
    -0.000529857
    -0.000581139
    -0.000000161
    -0.000129264
    -0.000005072
    -0.004783002
    -0.000178725
    -0.001920026
     0.000000000
    -0.000000001
    -0.000247592
    -0.004334056
    -0.000000735
    -0.000305252
    -0.004260291
    -0.000641728
    -0.001624594
     0.000000000
     0.000000001
    -0.000008075
    -0.000000001
     0.000000060
    -0.000506504
     0.000007148
     0.000000010
     0.000000197
     0.000000000
    -0.000000265
    -0.000000001
     0.000000076
    -0.000000000
    -0.000000192
     0.000000239
    -0.000002247
     0.000011464
    -0.002932256
     0.000000106
     0.000000947
     0.000000032
    -0.000029987
     0.000000073
    -0.000043929
    -0.000093335
    -0.004865653
    -0.001418610
     0.000000002
     0.000000001
     0.000000002
    -0.000041414
    -0.000063430
    -0.004803609
    -0.000266239
    -0.004400617
    -0.000494650
    -0.004656936
     0.000000040
    -0.002411845
    -0.001324479
    -0.000043084
    -0.000001330
    -0.000000472
     0.000139585
    -0.003120786
     0.000000917
     0.000000026
     0.000002662
    -0.005227086
     0.000000018
    -0.000000011
     0.000000046
     0.000000183
     0.000000096
     0.000000000
     0.000004870
    -0.001632937
    -0.000070071
     0.000001010
    -0.003960233
     0.000019722
     0.000000043
     0.000000001
    -0.000004188
    -0.000020424
     0.000251504
    -0.000296487
    -0.000739205
     0.000000372
    -0.000750081
     0.000004121
     0.000000007
    -0.000000038
     0.000000017
    -0.000000031
    -0.000037012
     0.000000000
     0.000000048
    -0.001106319
    -0.000000017
     0.000007632
    -0.002981606
    -0.002185356
    -0.000265180
    -0.000018388
    -0.000275510
    -0.000992441
    -0.000114223
    -0.000000426
     0.000000948
    -0.002859194
    -0.000034738
    -0.000000137
    -0.000108807
     0.000000012
    -0.000000000
    -0.000000780
     0.000000001
    -0.000003429
    -0.000000001
     0.000007974
    -0.000807811
    -0.000162966
     0.000000251
    -0.004057389
    -0.000120128
     0.000000032
     0.000000126
    -0.004459664
    -0.004270474
    -0.001443195
     0.000000001
    -0.000000223
    -0.004688307
    -0.001315613
     0.000000415
    -0.000167773
    -0.005421197
    -0.000000630
    -0.004991220
     0.000000000
    -0.000144033
    -0.000028810
    -0.001169919
     0.000000001
     0.000000279
    -0.001945199
    -0.000002007
    -0.000046301
     0.000001229
     0.000000003
    -0.000000006
    -0.000426752
    -0.000096760
    -0.000000388
     0.000036433
     0.000000028
    -0.000000000
    -0.000258618
    -0.000216518
    -0.004584682
     0.000000040
    -0.000070607
     0.000012558
     0.000000000
     0.000000004
    -0.000003968
     0.000002957
    -0.000117945
     0.000000028
    -0.003174864
     0.000000127
     0.000184167
     0.000090961
     0.001972359
    -0.000000668
     0.002039398
    -0.000000985
    -0.000000004
     0.002306812
    -0.000000001
     0.000002479
    -0.000000001
     0.000057841
     0.000663399
    -0.000000000
     0.002540950
     0.000032408
    -0.000000065
    -0.000000004
     0.001687132
     0.000247148
    -0.000000004
     0.002225042
    -0.000000018
    -0.000000883
     0.003262629
    -0.000012598
     0.002428225
     0.000000001
     0.000005229
     0.000027132
     0.000000007
     0.000362596
     0.000043120
     0.002767058
    -0.000011405
     0.000794315
    -0.000000062
    -0.000000000
     0.000948150
     0.002040063
    -0.000000016
     0.000060721
     0.001818753
     0.001497292
    -0.000554886
     0.001115497
    -0.000000106
    -0.000000215
     0.002476481
    -0.000000298
     0.001388485
     0.001613037
     0.001024204
    -0.000000000
    -0.000152379
    -0.000019089
    -0.000000005
     0.000036527
     0.000000355
     0.002800648
     0.002208457
     0.001185785
     0.000016769
     0.002419058
     0.002021636
     0.002278997
     0.002070974
     0.002676114
     0.000000066
     0.000616435
     0.002736929
     0.000646832
     0.001889366
    -0.000007449
     0.001679564
     0.000000000
    -0.000000003
    -0.000000022
     0.002082469
    -0.000000119
     0.000169259
     0.000011160
    -0.001168824
     0.001712606
    -0.000000057
     0.000103395
     0.002146822
     0.001643051
    -0.000014851
    -0.000000957
     0.001249104
    -0.000070424
     0.000000427
    -0.000000001
    -0.000000125
     0.001542740
    -0.000000251
     0.002226396
     0.000056115
     0.000649332
     0.000000129
     0.002023276
    -0.000199892
     0.002272246
     0.001915502
    -0.000001470
    -0.000005252
    -0.000006609
     0.001304173
     0.000914283
     0.000000301
     0.002569767
     0.000119039
    -0.000002680
     0.001791454
     0.001568908
     0.000855639
     0.000374164
     0.000341427
    -0.000463299
     0.001395404
     0.000167505
     0.002475440
     0.001202050
    -0.000000201
     0.000852584
     0.000763981
     0.002308562
     0.002248558
    -0.000000068
     0.001996476
     0.000075175
     0.000011208
     0.001170970
     0.002324306
     0.000001864
    -0.000000458
     0.002266747
     0.000307205
     0.000076963
     0.000000241
     0.001170587
     0.002255252
    -0.000002156
     0.000002375
     0.000000361
    -0.000008513
     0.000000833
     0.000490921
     0.001133612
     0.000032489
     0.000011140
    -0.000000012
     0.001182673
     0.001804139
     0.000002344
     0.000133491
    -0.000414388
     0.002567497
    -0.000000030
     0.001570860
    -0.000000001
    -0.000000036
     0.001744190
    -0.000000001
     0.002162745
     0.002332359
     0.002527551
     0.002356738
     0.002095783
    -0.000000003
    -0.000001186
    -0.000018141
     0.000162724
     0.002119027
    -0.000000002
     0.001740938
     0.000450310
    -0.000004931
    -0.000459522
     0.002265528
     0.000000133
     0.003020165
    -0.000000003
     0.000302175
     0.002647965
     0.002769108
     0.002010696
     0.000318072
     0.001822966
     0.001941028
    -0.000000103
     0.002321710
    -0.000026920
     0.000102229
     0.000242681
    -0.000000368
    -0.000055304
     0.002240650
     0.000130608
    -0.000001387
     0.002413834
     0.002448774
     0.000948239
     0.002385236
     0.001914812
     0.000096547
    -0.000000054
    -0.000013487
     0.000803675
     0.000007765
     0.001385840
     0.002488775
     0.002280455
     0.001170981
    -0.000000035
     0.000000121
     0.000551997
     0.001789310
     0.000290467
     0.000394777
     0.001607403
    -0.000000219
     0.000000132
     0.000377228
    -0.000014640
    -0.000000112
    -0.000000004
    -0.000001669
     0.000519323
    -0.000001873
    -0.000024307
     0.002269558
     0.000246998
     0.002033116
     0.001608241
     0.002392784
     0.002189526
     0.002331020
     0.002585683
     0.001665000
     0.002286161
     0.000214364
     0.000000389
    -0.000000009
     0.000763887
     0.000569705
    -0.000000646
    -0.000209769
     0.002726775
     0.000213679
     0.002002733
    -0.000000168
    -0.000006134
     0.000329154
     0.000004985
     0.000057977
     0.002690240
     0.002471448
     0.000800036
    -0.000031176
     0.000055999
     0.000421079
     0.002578884
    -0.000014704
     0.001427419
     0.001461201
     0.000135708
    -0.000000006
     0.002625392
     0.001377380
     0.002156096
     0.002772732
    -0.000007270
     0.002110301
    -0.000000381
     0.002401634
     0.002011014
     0.000000147
     0.000000390
    -0.000000541
    -0.000000967
     0.002646384
    -0.000002688
     0.002219970
     0.002375635
    -0.000000001
    -0.000003855
     0.002262594
     0.001735048
    -0.000000235
     0.000148379
    -0.000000038
     0.002081458
     0.001628528
     0.000000057
     0.000547367
    -0.000116517
    -0.000002615
     0.000729951
     0.000000010
     0.001078313
     0.002333331
     0.002568565
     0.002670014
     0.001802453
     0.002522084
     0.002663015
     0.002445551
     0.000013309
    -0.000012857
     0.000161877
    -0.000025293
     0.002380414
     0.001120112
     0.002367855
     0.000807261
    -0.000000229
     0.000000013
    -0.000000346
     0.000826394
     0.000778147
     0.002388520
     0.001665395
    -0.000000056
    -0.000302359
    -0.000003584
     0.001895758
     0.000723823
     0.001694979
    -0.000000001
     0.002074682
    -0.000042250
     0.001795516
    -0.000000018
     0.002095803
    -0.000031225
     0.000704222
     0.000409782
     0.002126347
     0.002142791
    -0.000012784
     0.001867395
     0.001642835
     0.001583172
     0.000003873
    -0.000000007
     0.001774109
     0.002082902
     0.002207329
     0.001572187
     0.002068458
    -0.000007633
     0.001531963
     0.001669237
    -0.000000001
    -0.000000001
     0.001815395
     0.001812465
     0.002105245
    -0.000024131
     0.002016076
    -0.000000517
     0.000910636
     0.000006040
     0.001445396
     0.001396348
     0.000437598
     0.000034378
    -0.000000053
     0.000538478
     0.001774887
     0.001826374
     0.001657644
     0.001753080
     0.001766045
     0.002112217
     0.001425648
     0.001205353
     0.000000021
     0.001790748
     0.000189466
     0.002281544
     0.001978814
     0.002379188
     0.002388750
     0.001635420
     0.002029706
     0.002098308
     0.002068219
     0.000030605
     0.001544775
    -0.000634082
     0.001124230
     0.000019411
     0.000261984
     0.000732352
    -0.000020437
    -0.000061651
     0.001089582
     0.000974956
     0.002105765
     0.000073731
     0.002108979
     0.000022468
     0.002636064
     0.001778757
    -0.000050143
     0.001886779
    -0.000021086
     0.000919669
     0.001985875
     0.000079688
     0.001120435
     0.001268889
     0.001991918
    -0.000055367
     0.002225328
    -0.000952124
     0.000887435
     0.002646820
     0.001941679
     0.000000446
     0.002145072
     0.002415618
    -0.000008266
    -0.000001979
    -0.000001214
     0.002017650
    -0.000002672
    -0.000005612
    -0.000000156
     0.000008651
     0.002042942
     0.002151910
    -0.000014334
    -0.000000593
     0.002448845
    -0.000015240
     0.000000012
     0.001179727
    -0.000556837
    -0.000000233
     0.000001834
     0.002228511
     0.002147210
    -0.000000118
     0.000165132
    -0.000000123
    -0.000245906
     0.000873464
     0.000008271
     0.002958774
    -0.000000048
     0.002467934
     0.000941128
     0.002436446
     0.001515595
     0.002669381
     0.002578191
     0.000333441
    -0.000017572
     0.000000002
    -0.000024683
     0.000007873
     0.000000146
     0.002745500
    -0.000596108
     0.002253189
    -0.001113809
     0.001268226
     0.000256684
     0.002173223
     0.000851466
    -0.000000000
     0.002599525
    -0.000165819
     0.002420885
     0.000516092
    -0.000017486
     0.002517540
     0.000015861
     0.002511633
     0.000230728
     0.000000037
     0.000462479
     0.001345268
     0.001139623
     0.001681431
     0.002580543
    -0.000000001
     0.002701843
     0.002026849
    -0.000003099
     0.002104689
    -0.000009124
    -0.000000001
     0.001891850
     0.002274862
    -0.000004495
     0.000005028
     0.000000921
    -0.000010767
     0.002611928
    -0.000010342
    -0.000000067
     0.002274634
     0.002121998
     0.000002077
     0.001936725
     0.002252352
    -0.000001026
    -0.000000465
     0.000324619
    -0.000000893
     0.000099753
     0.000016336
     0.001385958
     0.001732889
    -0.000540344
     0.002386918
    -0.000000127
     0.001090984
     0.000000221
     0.001185585
     0.002221634
     0.002575695
     0.002468504
     0.002465251
     0.001724277
    -0.000003048
     0.002547875
     0.002763600
     0.000977623
     0.000325654
    -0.000026994
    -0.000012606
    -0.000000346
     0.001486261
     0.002368901
    -0.000000047
     0.000016624
    -0.000005721
     0.000631324
     0.002474536
    -0.000000013
    -0.000055697
     0.002628969
     0.000000110
     0.002908972
     0.000084002
     0.001816172
    -0.000000028
     0.002015016
     0.001970141
    -0.000000592
     0.000093673
     0.000003807
    -0.000027445
     0.002089964
    -0.000000449
     0.000025349
     0.002252122
    -0.000661482
     0.002453326
     0.002400773
     0.002242309
     0.000719067
    -0.000000047
     0.000256542
     0.001917874
     0.000032740
     0.000971782
    -0.000023886
     0.002464483
     0.001326264
    -0.000000016
     0.001425684
     0.002284559
    -0.000001305
     0.000399064
     0.000924127
     0.000916070
     0.000004950
    -0.000001860
     0.001352937
     0.000105486
    -0.000000175
    -0.000022586
     0.000466853
    -0.000006459
    -0.000000062
     0.000537062
    -0.000005634
     0.000000038
     0.002245978
    -0.000010906
     0.000502620
     0.001916833
     0.001660316
     0.002220924
     0.002393802
     0.002534482
     0.002276964
    -0.000164501
     0.002455211
     0.001749659
    -0.000001568
     0.001302426
     0.000848890
    -0.000000102
     0.001115815
     0.000196392
     0.002625908
    -0.000267144
    -0.000000045
     0.000268588
    -0.000000033
    -0.000001283
     0.001959086
     0.000759304
     0.000072142
     0.002597368
    -0.000000799
     0.000027335
     0.001905923
     0.002176423
     0.000456484
     0.001198106
     0.001198201
     0.002214216
    -0.000014715
     0.001613140
    -0.000126251
     0.000462260
     0.000415026
    -0.000001829
     0.000733755
    -0.000000188
     0.002348225
     0.002234175
    -0.000000601
     0.000110299
     0.000372590
     0.002019150
     0.000057669
     0.002376445
     0.001097448
    -0.000000372
     0.000128970
     0.000206382
     0.000730401
     0.002214501
     0.000232564
    -0.000002863
     0.002343387
     0.001013363
     0.000383162
     0.000000074
    -0.000017480
    -0.000000151
    -0.000000184
     0.000112878
     0.000200004
     0.001280612
     0.000356579
     0.000000987
     0.001799144
     0.001168707
     0.002678875
    -0.000212674
    -0.000000055
     0.000000539
    -0.000000041
     0.001654540
    -0.000000012
     0.001866425
     0.002158130
     0.002570874
     0.002290733
    -0.000000023
     0.002215432
     0.002371611
    -0.000000547
     0.000219726
     0.000009696
    -0.000000593
     0.000340734
     0.001827521
    -0.000000115
     0.002076551
     0.002831470
    -0.000011712
     0.002340278
    -0.000141864
    -0.000000026
    -0.000001155
    -0.000001943
     0.001233847
    -0.000001869
     0.000987913
     0.002393514
     0.002748080
     0.000030930
     0.002483973
     0.002546475
     0.000049378
     0.001924180
     0.002556708
     0.000568648
    -0.000017244
     0.001598053
     0.000000002
    -0.000011099
     0.001779266
    -0.000000006
     0.001523316
    -0.000000371
     0.000075975
     0.001501667
     0.002172233
    -0.000000002
    -0.000179897
     0.001785999
    -0.000000000
     0.002113870
     0.002195240
    -0.000001512
    -0.000002817
     0.002183177
     0.000158758
    -0.000048462
     0.002493029
     0.000839857
    -0.000000809
     0.000316485
    -0.000000007
     0.000256049
    -0.000000003
     0.000754719
    -0.000000409
    -0.000021773
    -0.000601198
    -0.000008469
     0.001832443
     0.000745377
     0.001835870
     0.000666391
     0.000371655
    -0.000005822
    -0.000000009
    -0.000000015
    -0.000004032
     0.000260359
     0.000000510
     0.000364404
     0.000133498
     0.001878982
    -0.000038618
     0.001778648
    -0.000028669
     0.000142790
     0.000000000
     0.000111043
     0.001450037
     0.002232203
     0.002328605
     0.000992765
     0.002217768
     0.002349903
    -0.000000001
    -0.000000027
     0.002338918
     0.002913225
     0.001249383
     0.002350523
     0.001445426
    -0.000020780
     0.000752729
     0.002730116
     0.001012012
     0.001168525
    -0.000000101
     0.002490034
     0.000000357
     0.001338429
    -0.000007376
     0.002567785
    -0.000000172
     0.000000045
     0.002598340
     0.002001498
     0.000673877
    -0.000000224
     0.000801808
    -0.000000002
     0.001752075
     0.002676813
    -0.000004917
     0.001488615
     0.002427991
    -0.000019248
     0.000002528
     0.002400426
     0.000052747
     0.000065052
    -0.000017889
     0.002745578
    -0.000036594
     0.001986486
    -0.000000114
    -0.000015490
     0.001823575
     0.002439767
     0.000000000
     0.001860876
     0.000006459
    -0.000006940
     0.002019667
     0.000628161
     0.000000000
    -0.000001125
     0.002261661
    -0.000001654
     0.000757867
     0.002285094
     0.002370616
     0.002111385
     0.001072682
     0.001593120
     0.002526766
     0.000591060
     0.002666615
    -0.000001303
     0.001791538
     0.000000001
    -0.000002936
     0.001219916
     0.000903256
    -0.000002262
    -0.000000139
     0.000622126
    -0.000000342
     0.002462079
     0.002209016
    -0.000002289
    -0.000000096
     0.002450946
     0.002489534
    -0.000125817
     0.001417758
     0.000667208
     0.000000099
     0.000124415
     0.002579320
     0.000000002
    -0.000000136
     0.002489299
     0.002576581
    -0.000000346
    -0.000011696
     0.002158456
     0.000002738
    -0.000014631
    -0.000015824
     0.000137210
     0.002016036
     0.000834082
     0.000846258
    -0.000000295
    -0.000000001
    -0.000000027
     0.002587974
     0.000368474
    -0.000000009
     0.001748830
     0.001378910
    -0.000000042
     0.002323900
     0.001387464
     0.000173407
    -0.000236108
     0.001148140
     0.000001305
    -0.000000002
    -0.000000001
     0.001924818
     0.001459019
     0.000271641
     0.001216385
     0.000264800
     0.000008419
     0.000204040
     0.000367771
    -0.000053409
     0.000640076
     0.002233126
    -0.000020092
     0.002500786
     0.000066372
     0.001903503
     0.001777538
     0.002560843
     0.003033175
     0.002241287
     0.002430001
    -0.000002362
     0.000884848
     0.000050226
     0.000000216
    -0.000000219
    -0.000000002
     0.000049419
     0.002232703
    -0.000022442
    -0.000004579
     0.000000009
     0.001188294
     0.000770532
     0.001665515
     0.000914516
     0.000509072
     0.000708876
    -0.000000013
     0.002394887
    -0.000000179
     0.002001078
    -0.000019169
    -0.000009626
     0.001988614
    -0.000018578
     0.002532964
    -0.000250543
     0.000003825
     0.002081083
     0.002279462
    -0.000206752
     0.000001477
     0.000331089
     0.002190665
    -0.000000021
     0.002188390
    -0.000002169
     0.000288582
     0.002493880
    -0.000000087
     0.002451808
     0.000550425
     0.001145035
     0.002214141
     0.000000459
     0.001756700
     0.001114353
     0.000000024
    -0.000000007
     0.001918968
     0.000000024
     0.000895900
     0.000000020
     0.002187162
     0.002089338
     0.000225363
     0.001816884
    -0.000004771
    -0.000001554
     0.001749260
     0.000000100
    -0.000009887
     0.000171673
     0.002222477
    -0.000226877
     0.001976924
     0.002016456
     0.002297652
     0.000250205
    -0.000029311
     0.000674995
    -0.000000046
    -0.000025323
    -0.000008351
    -0.000000224
     0.001522603
     0.002232962
    -0.000000194
     0.002181099
     0.001589020
     0.000178856
     0.001198719
    -0.000162488
     0.001424919
     0.002158906
     0.002385886
    -0.000006393
     0.002691880
    -0.000002628
     0.001336785
     0.002642018
     0.002559942
     0.000429723
     0.000899302
    -0.000000001
     0.002334254
     0.000037011
     0.000000002
    -0.000000226
     0.002190121
     0.002260853
     0.002084698
     0.002305806
    -0.000007920
    -0.000000002
     0.001078602
    -0.000000235
     0.002542902
     0.001301050
     0.001951516
     0.002564346
     0.000000028
    -0.000001155
     0.002433069
    -0.000000012
     0.000031269
     0.001825437
     0.002352499
     0.000008629
     0.000631348
    -0.000000997
     0.002325081
    -0.000007473
     0.002182774
    -0.000014943
    -0.000001731
     0.001307038
     0.000035218
     0.000112934
    -0.000000003
     0.001789111
    -0.000086942
     0.001512991
     0.000255891
    -0.000002905
     0.000881724
    -0.000011577
    -0.000668865
     0.001823469
     0.002112902
     0.001844168
     0.000049640
     0.000355526
     0.002053747
     0.002471281
     0.002149813
     0.002372985
     0.002588713
    -0.000249051
     0.000624263
    -0.000180452
     0.002451977
     0.002167514
    -0.000000132
    -0.000007824
    -0.000067266
     0.002297508
     0.002481526
     0.000003033
     0.000689886
     0.001613617
    -0.000000119
     0.000000023
     0.002576516
     0.000201424
    -0.000014965
     0.002396483
     0.002508563
     0.000032236
     0.002070253
    -0.000019485
    -0.000009176
     0.000043945
    -0.000000881
     0.001070454
     0.000753807
     0.002049313
     0.002457336
    -0.000000004
     0.000769910
     0.002568394
    -0.000001431
    -0.000000700
     0.001419669
     0.001887546
     0.000386353
     0.001563093
     0.002356024
     0.000023702
     0.000019522
     0.000794169
    -0.000218820
    -0.000000008
    -0.000000030
     0.000000003
     0.000416936
     0.001150706
     0.000012086
     0.001478079
     0.001588577
    -0.000031930
     0.000608983
     0.001839557
     0.000457748
    -0.000023341
     0.002079830
     0.002059713
     0.000187687
     0.001849305
     0.002007149
     0.002757562
     0.002509694
    -0.000003082
     0.002426255
     0.002167196
    -0.000000001
    -0.000000900
     0.000087177
     0.000040531
     0.001164201
     0.000000026
     0.002186734
    -0.000007875
    -0.000007537
    -0.000040430
     0.001342802
    -0.001380859
     0.002243774
     0.001416409
     0.000501901
     0.000054897
     0.001379580
     0.000331212
     0.002654167
     0.001470412
     0.000000150
     0.002364325
    -0.000000807
    -0.000000004
     0.002510966
    -0.000010263
     0.000651252
     0.001700417
     0.002492922
    -0.000000008
     0.000327530
    -0.000000143
     0.000063678
     0.000699159
    -0.000000673
     0.002530455
     0.001801895
    -0.000040139
    -0.000008766
     0.002327578
     0.000471844
     0.000009602
     0.002280937
     0.000668160
    -0.000029849
     0.002674667
    -0.000000881
    -0.000000006
    -0.000000282
     0.000041580
     0.001825157
     0.002123078
     0.001864057
    -0.000000162
    -0.000000000
     0.001965751
     0.002148593
    -0.000000323
     0.002240737
    -0.000014051
     0.000208837
    -0.000033141
     0.002011637
     0.002187329
    -0.000015372
    -0.000515204
     0.000445771
     0.001891863
     0.002487483
     0.001638760
     0.000001508
     0.002024759
    -0.000003437
     0.002557664
     0.000978957
     0.001026898
    -0.000002464
    -0.000000010
    -0.000014602
     0.000164662
    -0.000000045
    -0.000000073
     0.000035917
     0.000513875
    -0.000005515
     0.001519785
     0.002397441
     0.002582886
     0.002516920
     0.000128248
     0.000432202
     0.002540326
     0.002579026
     0.001989393
    -0.000000392
     0.000001037
     0.001741469
    -0.000043531
     0.000981798
     0.001736794
    -0.000000803
     0.001869431
     0.001811519
     0.001452008
    -0.000099311
    -0.000000008
     0.001762444
    -0.000343268
    -0.000000008
     0.002289242
    -0.000000005
     0.002099726
     0.000990824
     0.002203986
    -0.000024000
     0.002490252
    -0.000079963
    -0.000000585
     0.000835394
    -0.000014577
     0.001140630
    -0.000000014
     0.000362753
     0.000099031
    -0.000008703
    -0.000624893
    -0.000038259
     0.001747388
     0.000503447
     0.001937974
     0.000709425
    -0.000000001
    -0.000020722
     0.000964744
    -0.000016135
    -0.000002567
    -0.000000006
    -0.000013190
     0.001444649
     0.000157315
     0.000578851
     0.000000560
     0.000007167
     0.000000038
     0.000450176
     0.000252716
     0.001879066
     0.002220244
     0.001434414
     0.001629263
     0.002242075
     0.002408298
     0.002260239
     0.002587745
     0.002310231
    -0.000003006
     0.000810806
     0.001046547
     0.000967769
     0.002603532
     0.002754892
     0.001659057
    -0.000000019
     0.001924356
     0.000064270
     0.002664330
     0.002519035
    -0.000002109
     0.002411595
     0.003179107
     0.001248910
     0.000004401
    -0.000014618
     0.001910194
    -0.000003932
    -0.000009567
     0.000994955
     0.001710867
    -0.000000002
    -0.000018095
    -0.000003518
     0.000391897
     0.002686698
     0.001707122
    -0.000298604
     0.000014581
     0.000294744
     0.002344065
     0.002172150
    -0.000000003
     0.000697733
    -0.000013810
     0.001255458
     0.002688971
     0.000079180
    -0.000000003
    -0.000002080
     0.000040852
    -0.000000002
    -0.000001930
     0.001283399
    -0.000132416
     0.002085156
     0.001802231
     0.001311695
     0.002758337
     0.000000151
     0.000287753
     0.002575378
    -0.000000005
    -0.000004441
     0.000106684
    -0.000001889
     0.001617719
     0.000026470
    -0.000000004
     0.000095517
     0.000535618
    -0.000635805
    -0.000185366
     0.001093692
    -0.000003337
     0.002755599
     0.003022963
     0.002928990
     0.002855211
     0.001788437
     0.002148036
     0.002345156
     0.002099896
     0.000002113
     0.000240548
     0.002053363
    -0.000002023
    -0.000000001
     0.002257990
     0.000000017
    -0.000000003
    -0.000000092
    -0.000007857
     0.000170846
    -0.000000012
     0.000669612
    -0.000002004
     0.000105028
    -0.000000742
     0.000785634
     0.000373707
    -0.000000304
    -0.000054299
    -0.000080132
     0.001786545
    -0.000027812
     0.002029572
    -0.000000024
    -0.000000740
     0.001009482
     0.000667293
     0.000000001
     0.002947435
    -0.000013042
    -0.000002828
    -0.000046387
    -0.000023206
     0.002637428
     0.000022342
    -0.000000002
     0.002619691
     0.000003737
     0.001865302
     0.001274672
    -0.000011660
     0.002573346
     0.001959968
     0.000354825
     0.000142995
    -0.000000001
     0.002415401
     0.000535190
     0.002338247
    -0.000004615
    -0.000000280
     0.000010435
     0.002099250
     0.001716967
     0.002682176
     0.000064238
     0.002610676
     0.000010074
    -0.000000698
    -0.000000492
    -0.000001484
     0.000471190
    -0.000038828
     0.000922809
     0.001648672
     0.000290298
     0.000754019
    -0.000049300
    -0.000009416
    -0.000000005
    -0.000000001
    -0.000006851
     0.000615504
    -0.000134984
     0.000671052
     0.000102296
     0.003091860
     0.000126408
     0.000002627
     0.002135196
     0.002129349
    -0.000034468
     0.001358771
     0.000104816
    -0.000000593
    -0.000000042
    -0.000000229
     0.002128803
    -0.000026808
    -0.000041454
    -0.000000772
     0.001919023
    -0.000085952
     0.001551390
     0.000783898
     0.000000096
    -0.000003351
    -0.000000017
    -0.000019908
    -0.000007058
     0.000002906
     0.001141462
     0.002503296
    -0.000000002
    -0.000023820
    -0.000000001
    -0.000000001
    -0.000000648
    -0.000000001
    -0.000194536
    -0.000000655
     0.000000022
     0.001110102
     0.000000007
    -0.000035601
     0.000292570
    -0.000000001
     0.000159373
    -0.000002438
    -0.000000001
    -0.000000024
    -0.000012134
    -0.000000009
     0.000149911
    -0.000000593
    -0.000033953
     0.000005748
     0.000615267
    -0.000014590
     0.000003571
     0.001588248
     0.000336054
    -0.000000033
    -0.000000168
    -0.000000000
    -0.000000022
     0.000000001
    -0.000008923
    -0.000000289
     0.002200537
     0.002314946
    -0.003011731
     0.002584072
    -0.000005013
     0.002534095
    -0.000000436
     0.000329321
     0.002724917
     0.001996736
     0.000850188
     0.002543671
    -0.001250408
    -0.000000003
    -0.000032995
     0.001192689
     0.000151364
     0.001496337
     0.000034793
    -0.000228555
    -0.000009834
    -0.000000001
     0.002270152
     0.002996077
    -0.000000005
     0.001840008
    -0.000001819
     0.001433947
     0.001853860
     0.001061830
    -0.000005821
     0.002404933
     0.002180563
    -0.000000186
     0.002576402
    -0.000012565
    -0.000000000
     0.000000032
     0.000000521
    -0.000009212
    -0.000000004
     0.003133280
     0.000555848
     0.000743542
    -0.000000008
     0.000171816
    -0.000007768
     0.000000117
    -0.000000047
    -0.000000667
     0.000028714
     0.000000312
     0.002827854
     0.000008657
    -0.000197579
     0.001263555
     0.000121182
     0.000454342
     0.002249073
    -0.000000005
    -0.000000037
     0.002394207
     0.001491018
     0.002045110
     0.002224979
    -0.000000001
    -0.000117605
     0.002727040
     0.002557628
     0.000670580
     0.002833857
    -0.000000048
    -0.000000068
    -0.000032269
     0.000016688
     0.002131771
     0.000022047
     0.002487041
    -0.000029155
    -0.000011663
     0.002556002
    -0.000000247
     0.000086894
     0.000638444
     0.001836180
     0.001518952
     0.000000233
     0.001512109
     0.002435739
    -0.000055425
    -0.000006247
     0.000283788
     0.001867675
    -0.000000176
    -0.000005697
    -0.000013138
     0.002163958
     0.001163741
     0.001990322
     0.001498759
     0.002007690
     0.000277945
     0.002460357
    -0.000000004
    -0.000001841
     0.000014321
     0.002433158
     0.000479105
     0.001320550
    -0.000000049
    -0.000000284
     0.000040571
    -0.000000005
     0.000763147
     0.001584688
     0.001259307
     0.001621902
     0.000035510
    -0.000008034
     0.002188813
    -0.000000005
    -0.000016221
     0.001038117
     0.001848997
     0.000367431
     0.000016964
     0.000039577
     0.002906068
     0.001968909
     0.002010620
     0.000003179
    -0.000007844
    -0.000108766
     0.001497625
     0.001897774
     0.002176100
     0.002498858
    -0.000007384
     0.002106400
    -0.000009183
    -0.000010301
     0.000000000
     0.002016029
    -0.000505736
     0.000829250
     0.002411740
    -0.000165728
     0.000971303
    -0.000008593
     0.001209685
     0.001550827
     0.002684600
     0.000000009
    -0.000003138
     0.002480411
    -0.000003258
    -0.000184274
     0.000466742
     0.002477134
     0.000941859
    -0.000000002
     0.002091371
     0.002595699
    -0.000000013
     0.000004402
     0.002029708
    -0.000002289
     0.000885651
     0.001154108
     0.000017696
     0.002386510
     0.000775052
     0.001467659
     0.000678926
     0.002500693
     0.000028600
     0.000068104
     0.002381116
    -0.000006132
     0.000330405
     0.002644171
     0.000000707
    -0.000011323
     0.000000143
    -0.000000626
     0.001962643
     0.001819371
     0.002057438
     0.001672793
    -0.000001937
     0.000023264
     0.002116586
    -0.000483835
     0.002106265
     0.001935581
     0.000184976
     0.000098563
     0.001500505
     0.002157021
     0.002663134
     0.002677007
    -0.000000747
     0.000977362
     0.000238220
     0.002333776
     0.001865278
     0.000110525
    -0.000000002
     0.002408189
     0.001275503
    -0.000410034
     0.001457542
    -0.000000066
     0.001168159
    -0.000001822
     0.000164873
     0.000956876
     0.000634921
     0.002477034
     0.002424662
     0.000057679
     0.001861098
    -0.000000014
     0.000030123
     0.002331370
     0.002340488
     0.002979011
     0.002297808
    -0.000000049
    -0.000003399
     0.001514139
    -0.000028363
     0.000007351
     0.000002606
     0.001046059
    -0.000018625
     0.000004600
    -0.000000950
    -0.000000004
     0.001565135
     0.001606791
     0.002330406
     0.000402835
     0.002362301
     0.000462205
     0.000027808
    -0.000009223
     0.000875053
    -0.000000003
     0.002430159
     0.000106809
     0.002488391
     0.001006946
    -0.000003796
    -0.000000012
    -0.000004319
    -0.000000006
     0.000063154
     0.000916351
     0.001485814
    -0.000524764
     0.000188992
     0.001276312
    -0.000001932
     0.001939484
     0.000412575
     0.002167010
    -0.000020931
    -0.000006154
    -0.000000447
     0.000127458
     0.000465635
     0.000027071
    -0.000000050
     0.000065539
     0.001965553
    -0.000003728
     0.001121955
     0.000017264
     0.002686836
     0.002545004
    -0.000001735
     0.002486310
     0.002132425
     0.002081967
     0.001767623
     0.001958741
     0.002110123
    -0.000271177
    -0.000445716
    -0.000007099
    -0.001006909
    -0.000887342
    -0.001066205
    -0.000474985
    -0.000000309
    -0.001141553
    -0.000924697
    -0.000783832
    -0.000743509
     0.000008414
     0.000000123
     0.000091133
    -0.000033573
    -0.000674883
    -0.001166582
    -0.001119180
     0.000017182
    -0.000491176
    -0.000611074
     0.000105973
    -0.001069428
     0.000006507
    -0.001136873
    -0.000386507
    -0.001146294
     0.000004893
    -0.000220390
    -0.000879297
    -0.000607689
    -0.000546734
     0.000074283
    -0.000000133
    -0.001167302
    -0.001328247
    -0.000979618
    -0.000934948
    -0.000369724
     0.000192528
    -0.000661474
    -0.000002690
    -0.000972379
    -0.001126057
    -0.001197724
    -0.000840040
    -0.000572677
    -0.000802396
    -0.001022674
     0.000000554
     0.000000014
    -0.001055465
    -0.000000002
    -0.000792476
    -0.000672027
    -0.000505075
    -0.000847827
    -0.000018609
    -0.000995576
    -0.000850465
    -0.000135210
     0.000068365
     0.000008452
    -0.000497030
    -0.000057900
    -0.001136020
    -0.000932072
    -0.000127361
    -0.001355251
    -0.000059641
     0.000000412
    -0.001048647
    -0.000003203
    -0.000877916
    -0.000000114
    -0.000808143
     0.000028685
     0.000091147
    -0.001214498
    -0.000684035
    -0.000548919
     0.000015969
     0.000101083
    -0.001100500
     0.000000043
    -0.000433911
    -0.000892394
    -0.000020177
    -0.000050214
     0.000000213
    -0.000460066
    -0.000664270
    -0.001251342
    -0.001079502
     0.000000855
     0.000000034
    -0.000822195
    -0.001251362
     0.000005257
     0.000006664
    -0.000854566
    -0.000000001
    -0.000106423
     0.000000297
    -0.000000048
    -0.000526293
    -0.001164739
    -0.000943404
    -0.000000712
     0.000062956
     0.000069053
     0.000000197
    -0.001104576
    -0.000033253
     0.000163143
     0.000064912
    -0.000125861
    -0.000164640
    -0.001057820
    -0.001075389
    -0.000442412
     0.000000544
    -0.000000005
    -0.000833716
    -0.000089688
    -0.001083209
     0.000013591
    -0.000844837
    -0.000667999
    -0.000094759
    -0.001149953
     0.000000001
    -0.000172559
    -0.001150626
    -0.000018370
    -0.000930263
     0.000000008
    -0.001227417
     0.000020588
     0.000000091
    -0.000744811
    -0.000961790
    -0.000522787
    -0.001052356
    -0.001219879
    -0.000000001
    -0.000223328
     0.000000038
    -0.000022461
     0.000003021
     0.000000614
     0.000000037
    -0.000808179
    -0.000000011
    -0.001046737
    -0.000004002
    -0.000508624
     0.000000338
    -0.000396089
    -0.000150860
     0.000000240
    -0.000004220
    -0.000144550
    -0.000118634
    -0.000891004
    -0.000216526
    -0.001527809
     0.000188541
    -0.000310328
    -0.001103158
     0.000051463
     0.000174927
    -0.000257741
    -0.000000003
     0.000011390
    -0.000990604
    -0.000330621
    -0.000920620
    -0.001200076
     0.000159872
     0.000000001
     0.000010640
     0.000001760
    -0.000825648
    -0.000000084
    -0.000423154
    -0.001074367
    -0.000002371
     0.000003118
    -0.001325971
    -0.001090891
    -0.000946503
    -0.001048052
     0.000042306
    -0.000048432
    -0.000015250
    -0.000835151
    -0.001151397
    -0.000099202
    -0.001060202
    -0.000435387
    -0.000494636
    -0.000119009
     0.000082516
    -0.001224735
     0.000005388
    -0.000766624
    -0.001158160
    -0.000887295
     0.000024560
    -0.000256469
     0.000039353
    -0.000159764
    -0.000018411
    -0.000259911
    -0.001051852
    -0.000150034
     0.000002573
    -0.001234134
    -0.000920638
    -0.001015280
    -0.001184454
    -0.000217519
    -0.000000033
    -0.000333505
    -0.000000113
     0.000037109
    -0.000702564
     0.000000000
    -0.000698673
    -0.000110292
    -0.000613836
     0.000000246
    -0.000551869
     0.000000154
    -0.001285626
    -0.000000008
     0.000000575
    -0.001337083
    -0.000000126
     0.000011068
    -0.001047281
    -0.000992422
    -0.000621205
    -0.000830331
    -0.000302238
    -0.000808302
    -0.000000080
    -0.000732541
    -0.001123845
    -0.000000306
     0.000023398
    -0.000741271
    -0.000588863
     0.000060717
     0.000006001
     0.000000000
     0.000032691
    -0.000906634
    -0.000670692
    -0.000840100
    -0.001293426
    -0.000000000
    -0.000291070
    -0.001033975
    -0.000760320
    -0.000936616
     0.000392326
    -0.000485043
    -0.000062561
    -0.000186432
    -0.001031836
    -0.000129053
    -0.000881057
    -0.000041799
    -0.000587074
     0.000024252
     0.000000000
    -0.000971970
     0.000095294
     0.000039401
     0.000124230
     0.000061777
    -0.001232712
    -0.001281598
    -0.000519521
    -0.000242390
     0.000000668
    -0.000977566
    -0.000869956
     0.000000591
    -0.000361416
     0.000014345
     0.000115600
    -0.001061487
    -0.000957246
    -0.000614502
    -0.000257732
     0.000000041
    -0.000075682
    -0.000158913
    -0.001015667
    -0.001118714
    -0.000363454
     0.000016478
    -0.000382383
     0.000119643
     0.000021301
     0.000001803
    -0.000738280
    -0.000000003
    -0.000618405
    -0.001124873
    -0.000000059
     0.000000003
     0.000011691
     0.000007971
     0.000003975
    -0.001296540
    -0.000060765
    -0.000000002
    -0.001406616
    -0.000246843
     0.000076306
     0.000001542
    -0.000984697
    -0.000036719
    -0.001068883
    -0.000000118
    -0.001032588
    -0.001065316
    -0.000469750
    -0.000351078
     0.000003857
     0.000084971
    -0.000211034
    -0.001167053
    -0.000955170
    -0.000849500
    -0.001281584
    -0.000379762
     0.000053853
    -0.001237059
     0.000028892
    -0.000318887
    -0.001060320
    -0.000005844
    -0.000000065
    -0.001030887
    -0.000008128
    -0.001292887
    -0.000425379
     0.000000245
    -0.000399992
    -0.000003516
    -0.000905921
     0.000000009
     0.000065566
    -0.000820623
    -0.000571517
    -0.000930433
     0.000008855
    -0.001038055
    -0.001486551
    -0.000697957
     0.000069188
    -0.001104986
    -0.001024246
     0.000020814
    -0.001204739
     0.000110001
    -0.000632659
    -0.000946889
    -0.000138976
    -0.000237439
    -0.000788202
    -0.001037896
    -0.000863247
     0.000000028
     0.000094817
    -0.000899113
    -0.000000526
    -0.001119135
     0.000000400
    -0.000033582
    -0.001058948
    -0.000978057
    -0.000000002
    -0.000000015
     0.000000028
    -0.000306628
     0.000000001
     0.000175708
     0.000087574
    -0.000098134
     0.000026422
     0.000001676
    -0.000034250
    -0.000000002
    -0.000175533
     0.000202242
     0.000040152
     0.000000061
    -0.000689258
     0.000000001
     0.000115257
    -0.000232077
    -0.000276699
     0.000001730
    -0.000958710
    -0.000783990
    -0.000970087
     0.000457909
    -0.000191531
    -0.000462139
    -0.000335172
    -0.000856018
     0.000040567
    -0.001165930
    -0.000626241
    -0.000798919
    -0.000858536
     0.000039541
     0.000000022
    -0.000606889
     0.000000705
     0.000354591
    -0.000057726
    -0.000414086
     0.000105451
     0.000039543
    -0.000000007
    -0.000000772
     0.000001441
     0.000000849
    -0.000712300
    -0.000299102
    -0.001023059
    -0.000223708
    -0.000000578
    -0.001000672
     0.000000001
    -0.001245850
    -0.000389882
     0.000000118
    -0.000484862
    -0.001278891
    -0.000067062
    -0.000303580
    -0.000686142
     0.000065433
     0.000243336
    -0.000644178
    -0.000101393
    -0.001029791
    -0.000876716
    -0.001190544
    -0.001289300
     0.000059649
    -0.000910344
    -0.000868698
     0.000052541
    -0.000967832
     0.000000659
    -0.000955849
    -0.000970106
     0.000000005
    -0.000001803
    -0.000752666
    -0.000025236
    -0.001060411
    -0.000746890
    -0.000720288
    -0.001019891
    -0.000000081
    -0.000000546
    -0.000086336
    -0.000050236
    -0.000620183
     0.000195956
     0.000011469
     0.000044802
     0.000164100
    -0.001043278
    -0.000000002
    -0.001155057
    -0.000247082
     0.000087196
    -0.000055305
    -0.000000074
    -0.000826041
     0.000072153
    -0.000543877
    -0.000353573
     0.000128444
    -0.000895299
     0.000000219
    -0.000512707
    -0.000845529
     0.000390908
    -0.000031666
    -0.000042739
    -0.000163096
    -0.001300719
    -0.000352004
    -0.000700034
     0.000014235
    -0.000934277
    -0.001450277
    -0.001017630
    -0.001302866
    -0.001270995
    -0.001044110
     0.000024238
    -0.000005062
    -0.000502819
    -0.000001052
    -0.000001033
    -0.000013744
     0.000026461
    -0.000000650
    -0.001608908
    -0.000986187
    -0.001065001
     0.000112801
    -0.001176011
    -0.000461213
    -0.001036615
    -0.000234136
    -0.001189890
    -0.001221119
    -0.000891544
    -0.000219805
    -0.001134540
     0.000001594
    -0.000748820
     0.000010447
    -0.000102181
    -0.000404152
    -0.000023355
    -0.000477073
     0.000245056
    -0.000607087
     0.000004225
    -0.000000359
    -0.000000003
    -0.000370113
     0.000048947
    -0.000448710
     0.000091721
    -0.000016846
    -0.000903732
    -0.000011548
    -0.001049414
    -0.000772366
     0.000004040
    -0.001193134
    -0.003080975
    -0.002273604
    -0.001011211
     0.000000013
    -0.000997015
     0.000081019
    -0.000002879
    -0.000713190
    -0.000000994
    -0.001105380
    -0.000000005
     0.000000002
    -0.000000002
    -0.001263134
    -0.001122980
    -0.001269133
    -0.000000083
    -0.000340110
     0.000001116
    -0.000913252
    -0.000871322
    -0.001176225
     0.000000117
    -0.000000008
    -0.000609766
    -0.000935924
     0.000000429
    -0.000000013
    -0.000673782
    -0.000600665
    -0.000160127
    -0.000000024
    -0.003067232
    -0.000039696
    -0.000382726
    -0.000000977
     0.000003909
    -0.001189950
    -0.000009505
    -0.001276049
    -0.000088878
     0.000093947
    -0.001151308
     0.000085745
    -0.000756594
    -0.000907005
     0.000000006
    -0.000983834
    -0.000200854
    -0.000722237
     0.000000000
    -0.000016245
    -0.000916121
    -0.000996859
    -0.001127698
    -0.000908520
    -0.000679136
    -0.000000002
    -0.000000010
     0.000157707
    -0.000000001
     0.000000008
    -0.001137484
    -0.001223024
    -0.000854153
     0.000027784
    -0.000033073
    -0.000012848
    -0.000434939
     0.000021966
    -0.000000176
    -0.001301140
    -0.001575573
    -0.000370162
     0.000001859
    -0.000762921
    -0.000269397
    -0.001079457
    -0.001207785
    -0.001477333
    -0.000000196
    -0.000395054
    -0.000303523
    -0.000655342
    -0.001112467
    -0.000550709
    -0.000015320
     0.000037685
    -0.000206351
    -0.000024104
    -0.001071288
    -0.000245781
    -0.000731673
     0.000024037
    -0.000569314
    -0.000086141
     0.000000015
     0.000087368
    -0.000667875
    -0.001070568
    -0.000092984
    -0.000292396
    -0.001173482
    -0.000771880
     0.000002717
    -0.000750342
    -0.001151706
    -0.001077017
    -0.001172279
    -0.000447559
     0.000041715
    -0.000032698
    -0.000917399
     0.000005386
    -0.000943084
    -0.001213988
    -0.000935801
    -0.000398248
    -0.000029413
    -0.000009464
    -0.000373835
    -0.000798852
     0.000044604
    -0.000385017
     0.000000078
    -0.001303727
    -0.001055868
    -0.001109913
    -0.000445211
    -0.000227548
    -0.000001448
    -0.001050845
    -0.000073131
    -0.000875247
     0.000000080
    -0.001339934
     0.000000002
     0.000004479
    -0.000022190
    -0.000000005
    -0.000000052
    -0.000001661
    -0.000000885
     0.000117303
    -0.000000085
     0.000015760
    -0.000191551
    -0.000391245
     0.000006872
     0.000007807
     0.000072275
    -0.001237508
    -0.000000764
    -0.000813756
    -0.000222666
     0.000000021
    -0.000237733
    -0.000003661
    -0.000478251
    -0.000773466
    -0.000883291
    -0.000110169
     0.000196537
    -0.000436808
    -0.000008777
     0.000000222
    -0.000309539
    -0.001053008
    -0.001034187
    -0.000743139
    -0.000548584
     0.000000108
    -0.000872202
    -0.000844692
    -0.000728324
     0.000154294
     0.000013939
    -0.000540036
     0.000136282
    -0.000029306
     0.000006168
    -0.000687388
     0.000000010
     0.000026804
    -0.000148964
    -0.000198218
    -0.000000054
    -0.000887692
    -0.000000040
     0.000008419
    -0.000343106
    -0.000723805
     0.000286432
    -0.000845470
     0.000196844
    -0.001082728
    -0.000079670
    -0.000502399
    -0.001070700
     0.000000000
    -0.000226493
    -0.000982425
    -0.001275423
     0.000072414
    -0.001028908
    -0.000003935
    -0.000496654
     0.000262709
     0.000013260
     0.000067924
    -0.001115709
    -0.000765707
     0.000001076
    -0.001055222
    -0.001066769
    -0.000880516
    -0.001157381
    -0.000234132
     0.000057667
    -0.000675556
    -0.000382914
    -0.000691098
    -0.000888118
    -0.001020908
    -0.000035384
     0.000470459
    -0.000625362
    -0.000000006
     0.000225400
     0.000012258
     0.000000001
     0.000049174
    -0.000107486
    -0.001306163
    -0.000704997
    -0.000019399
    -0.000124394
    -0.000000067
     0.000000022
     0.000103831
    -0.000179189
    -0.000499053
    -0.001133979
    -0.000000012
     0.000003785
    -0.001206412
     0.000000001
    -0.000225041
     0.000001119
    -0.000933970
    -0.000948321
     0.000000079
    -0.000278413
    -0.000801445
     0.000086632
     0.000039688
    -0.001191562
     0.000100792
    -0.000511401
    -0.001091367
    -0.000466158
     0.000007310
    -0.001315322
    -0.000667090
    -0.001330628
    -0.000004683
    -0.001093990
    -0.000000099
     0.000218844
    -0.000592385
     0.000002977
    -0.000550101
    -0.000464971
    -0.000753259
     0.000022198
    -0.000970085
    -0.000833144
    -0.001089079
     0.000022027
    -0.001018818
    -0.000236883
    -0.001017962
    -0.001090810
     0.000049849
    -0.000724018
     0.000260456
    -0.001007754
    -0.000809247
     0.000053937
    -0.001288482
    -0.000240696
    -0.001064968
    -0.000681670
    -0.000204334
    -0.000164867
     0.000143327
    -0.000987131
     0.000184153
     0.000000005
    -0.000941638
    -0.000666099
    -0.001049331
    -0.000138480
     0.000000017
    -0.001195752
    -0.000003735
    -0.000000018
    -0.000000003
     0.000000009
     0.000000445
     0.000000017
     0.000005006
    -0.000049146
     0.000008816
     0.000188815
    -0.000279670
    -0.001545840
    -0.000181519
    -0.000000001
    -0.000052956
     0.000003635
     0.000123919
     0.000000001
     0.000156381
     0.000004516
    -0.000167501
    -0.000087211
     0.000132003
    -0.000717611
     0.000004561
    -0.001021431
    -0.000898656
    -0.001055263
     0.000002194
    -0.000814833
    -0.000272988
    -0.000354297
    -0.000169821
    -0.000954369
    -0.000940448
    -0.000617809
    -0.001214557
     0.000000509
     0.000120630
     0.000199787
     0.000000140
    -0.000602259
    -0.000074213
     0.000006228
     0.000028262
    -0.000410942
    -0.000000613
    -0.000000017
     0.000010717
     0.000004657
    -0.000596326
    -0.000809089
    -0.000533957
    -0.001089409
    -0.000975739
    -0.000000384
     0.000000001
    -0.000209580
    -0.001281694
    -0.001310462
    -0.000624643
    -0.000475417
    -0.000128759
     0.000000094
    -0.000774020
     0.000023376
     0.000045050
    -0.000756073
     0.000003245
    -0.001252931
    -0.000782170
    -0.001034706
    -0.000140960
     0.000072531
    -0.000804665
    -0.000998149
     0.000056538
    -0.001360609
     0.000000748
    -0.000967314
    -0.000969830
     0.000000990
    -0.001049526
     0.000061413
    -0.001062459
    -0.000015689
    -0.000687966
    -0.000001812
    -0.000007420
    -0.000578215
    -0.000854119
     0.000000000
    -0.000857969
    -0.000000316
    -0.000591021
    -0.000036389
    -0.000132914
    -0.000001071
    -0.000123071
     0.000130415
     0.000014097
     0.000081467
    -0.000001696
    -0.001195648
    -0.000000001
    -0.001104442
    -0.000001454
    -0.000015820
    -0.000143670
    -0.000406884
     0.000051976
    -0.000144208
    -0.000579709
     0.000037968
    -0.000879514
     0.000738803
    -0.000853714
    -0.000531700
     0.000000118
    -0.000947234
    -0.000264082
    -0.000104010
    -0.000000000
    -0.001213601
    -0.000919232
    -0.000330350
    -0.001234993
     0.000010287
     0.000006984
     0.000016456
     0.000169280
    -0.000000623
    -0.001104966
    -0.000106921
    -0.000000236
    -0.000841419
     0.000052877
    -0.001071975
    -0.001012364
    -0.001098305
    -0.001292021
     0.000005279
    -0.000075620
    -0.001160428
    -0.000849768
    -0.000046533
    -0.000085564
    -0.000272869
    -0.000483024
    -0.000392570
    -0.000950839
    -0.001260967
    -0.000776825
     0.000001471
    -0.001307731
     0.000059295
    -0.000145318
    -0.000271055
     0.000009321
    -0.000725348
    -0.000084971
    -0.001051565
    -0.000332612
    -0.000047972
    -0.000179544
     0.000000000
    -0.001231941
    -0.001030376
    -0.000916700
    -0.001380279
     0.000003611
    -0.000000019
    -0.000168090
    -0.000000013
    -0.000145579
    -0.000572368
    -0.000011994
    -0.000627609
    -0.000417793
    -0.000714499
    -0.000001305
    -0.000712210
    -0.000021169
     0.000000010
    -0.000000022
    -0.001359327
     0.000000001
    -0.000000010
    -0.001288406
    -0.000355076
     0.000000142
    -0.000839327
    -0.000794830
    -0.001008722
    -0.001023877
     0.000014839
     0.000012551
    -0.000000394
    -0.001152741
    -0.000758317
    -0.000000275
    -0.000853241
     0.000000011
     0.000019259
     0.000073264
    -0.000543989
    -0.000693362
    -0.000963886
    -0.000724829
    -0.000808388
     0.000093420
    -0.001331019
    -0.000784279
    -0.001002599
    -0.000500520
    -0.000522368
    -0.000427358
    -0.000952064
    -0.000000000
    -0.000082140
    -0.000057497
    -0.000173098
    -0.001052169
    -0.000614830
    -0.000073187
    -0.000953062
     0.000000000
     0.000116676
     0.000081441
     0.000026059
    -0.000964054
     0.000011997
     0.000071838
    -0.001365668
    -0.001213497
    -0.000542186
    -0.001009699
    -0.000000386
    -0.000367475
    -0.000498477
    -0.000005037
    -0.000047231
    -0.000192004
     0.000000180
     0.000000161
    -0.000000013
    -0.000329628
    -0.000633027
    -0.000945416
    -0.001020097
     0.000020054
    -0.000389604
    -0.001163065
    -0.001028109
    -0.000319287
    -0.000155344
     0.000007367
     0.000030353
     0.000061585
    -0.000292905
     0.000000000
    -0.000000028
    -0.001132132
    -0.000665240
    -0.000000012
    -0.000763121
     0.000012237
     0.000017138
     0.000002770
    -0.000121712
    -0.001427394
    -0.000078352
    -0.001298646
     0.000000179
     0.000025875
    -0.000000012
    -0.001098191
    -0.000187426
    -0.001012204
     0.000111750
     0.000087714
    -0.000391810
    -0.000656331
    -0.001074659
    -0.001035254
    -0.000418313
    -0.001351521
    -0.000954775
    -0.000975330
    -0.001357762
    -0.000356442
    -0.000308117
    -0.000323053
    -0.001051213
    -0.000870934
    -0.000864188
    -0.000005743
    -0.000796395
    -0.001252053
    -0.001135654
    -0.000007545
    -0.000348673
     0.000103269
     0.000000144
     0.000000528
    -0.000644606
     0.000086020
    -0.001052283
    -0.000996454
    -0.000650027
    -0.000001750
    -0.001019763
     0.000038045
    -0.000347828
    -0.000260351
     0.000000014
    -0.001144331
    -0.000363395
    -0.001077345
     0.000001267
    -0.000583847
    -0.000520144
    -0.000716308
    -0.000323673
     0.000000572
    -0.000995050
    -0.001291191
    -0.001108675
    -0.000000812
     0.000039361
    -0.000651778
     0.000225818
    -0.000020133
    -0.000857472
     0.000000005
    -0.001150044
    -0.001158974
    -0.000866106
    -0.000000316
     0.000000012
    -0.000973056
    -0.000740216
    -0.001120995
    -0.000721218
     0.000000002
    -0.000482229
    -0.000678520
    -0.000892370
    -0.000000000
    -0.000933075
     0.000403404
    -0.001275072
    -0.000995845
    -0.000205411
    -0.000767141
     0.000006531
     0.000072860
    -0.000163506
    -0.000880365
    -0.000997267
    -0.000175647
    -0.000077458
    -0.001004572
     0.000004560
    -0.000003388
    -0.001423107
     0.000179286
    -0.000868665
    -0.000000091
    -0.000830373
     0.000050720
     0.000024828
    -0.000433595
    -0.000536348
    -0.001013991
     0.000096145
     0.000076344
    -0.000459100
    -0.000000045
    -0.001245733
     0.000829998
    -0.000189279
    -0.000878138
    -0.000604792
    -0.000076045
     0.000000031
     0.000000018
    -0.000959300
    -0.001121925
     0.000000002
    -0.000781963
     0.000056639
    -0.000034626
    -0.001351355
     0.000064976
    -0.000000010
    -0.000813158
    -0.000581768
    -0.000000003
     0.000019878
    -0.000001561
    -0.000887726
    -0.000881439
     0.000043159
     0.000044347
     0.000075225
     0.000142581
     0.000105770
    -0.000954411
     0.000000010
    -0.000491901
    -0.000932884
    -0.001004812
    -0.000467449
     0.000011432
     0.000041439
    -0.001057031
    -0.000030298
    -0.000785176
     0.000000096
     0.000000267
    -0.001090972
    -0.000265908
    -0.000567980
    -0.000289846
     0.000000510
    -0.000948917
    -0.000049733
    -0.001131074
    -0.000058127
    -0.000697534
     0.000000462
     0.000001838
    -0.001251154
    -0.000051616
     0.000000001
    -0.001045503
    -0.001034673
    -0.001249603
    -0.000760361
     0.000000047
     0.000000154
     0.000000255
     0.000016470
     0.000000002
     0.000028068
    -0.000502574
    -0.000041580
    -0.001048292
    -0.000000605
    -0.000770734
    -0.000076441
    -0.000296525
    -0.000288270
    -0.000837053
    -0.000014529
    -0.000155976
    -0.000000095
     0.000000064
     0.000173351
    -0.001119465
    -0.000402182
    -0.000132560
    -0.000934229
    -0.000312278
    -0.000463022
     0.000021401
    -0.000152275
    -0.001092579
    -0.000055849
     0.000032925
     0.000038171
    -0.000774099
    -0.001009050
    -0.000429697
    -0.000001197
    -0.000233677
     0.000011458
    -0.000161265
    -0.000215929
    -0.001129669
    -0.000083945
    -0.000850803
    -0.000907165
     0.000000017
     0.000017764
     0.000001295
    -0.000387229
    -0.001012504
     0.000032977
     0.000128207
     0.000020755
    -0.000252916
    -0.000486745
    -0.000629286
    -0.000455441
    -0.000866928
    -0.000094819
    -0.000000007
    -0.000527302
    -0.000301162
    -0.000280486
    -0.000816191
    -0.000893723
    -0.000001468
     0.000007139
     0.000014206
     0.000014442
    -0.000143771
    -0.001144845
    -0.000018750
    -0.000353384
    -0.000404545
     0.000011068
     0.000055450
    -0.001239021
     0.000000003
    -0.000818358
    -0.000887431
    -0.000867387
    -0.000499804
     0.000000057
     0.000000031
     0.000090474
     0.000227123
    -0.000914757
    -0.001063710
    -0.000734197
    -0.000753224
    -0.000882543
    -0.001001774
    -0.000473482
    -0.000024375
    -0.000075111
     0.000003098
    -0.000344833
    -0.000296884
    -0.001295948
    -0.000671084
    -0.000923752
    -0.000953580
     0.000000331
     0.000102911
    -0.000798876
     0.000082579
    -0.000113421
     0.000064619
    -0.000516704
     0.000091023
    -0.001149897
    -0.001091874
    -0.001173752
    -0.000000009
    -0.001069931
    -0.000995146
     0.000000003
    -0.000001626
    -0.000878620
    -0.001046475
    -0.001069297
    -0.001264407
    -0.000943675
    -0.000008292
    -0.000564103
    -0.000483984
    -0.000438401
    -0.000969703
    -0.000396971
    -0.000884406
     0.000000124
     0.000171278
    -0.000407031
    -0.001218901
     0.000000070
     0.000023813
    -0.001189892
    -0.000907556
    -0.001077488
    -0.000000014
    -0.001177877
    -0.000736459
    -0.000889995
    -0.000019535
    -0.000000016
    -0.000999300
    -0.000966196
    -0.000939939
    -0.001114593
    -0.000001795
    -0.000723249
    -0.000279059
     0.000101421
     0.000017580
    -0.000762445
     0.000020595
    -0.000558441
     0.000000000
     0.000003349
    -0.000215145
    -0.000829976
    -0.001056699
    -0.000435445
     0.000000001
     0.000000002
     0.000000460
    -0.000804648
    -0.001272325
    -0.000283545
    -0.000585821
    -0.001037823
    -0.001097062
    -0.000000537
    -0.000000007
    -0.000644673
    -0.000299306
    -0.000787223
    -0.000803274
    -0.000052943
    -0.000004556
    -0.001098645
    -0.001097316
    -0.000748237
    -0.001112538
    -0.001213243
    -0.000817304
    -0.000000110
    -0.000000281
     0.000000257
    -0.000920973
    -0.001434566
    -0.000769090
    -0.000923137
     0.000000970
     0.000075513
     0.000023063
     0.000000003
     0.000000488
     0.000016207
    -0.001143713
    -0.000093565
    -0.001129203
    -0.001101209
     0.000347714
    -0.000912408
     0.000121528
    -0.000230432
    -0.000534774
     0.000294334
    -0.001011813
     0.000856714
    -0.000084842
    -0.001016801
     0.000032222
    -0.000059192
    -0.000000003
    -0.002202901
    -0.001159737
    -0.001158127
     0.000000040
    -0.000899623
    -0.001183732
    -0.000000000
    -0.001468796
     0.000000073
    -0.000343780
    -0.000920822
    -0.001057245
    -0.000568934
    -0.000181083
    -0.001173417
    -0.000285837
    -0.001056172
     0.000067759
    -0.000941662
    -0.000967077
     0.001154133
    -0.001013210
     0.000623695
    -0.000783160
    -0.001147242
     0.000063386
    -0.001320573
     0.000038878
    -0.000024766
    -0.001185557
    -0.000073113
     0.000058943
     0.000074797
     0.000000019
    -0.000000000
    -0.000000008
     0.000038598
     0.000000000
    -0.000059279
     0.000008857
    -0.000000242
    -0.000000004
    -0.000606627
     0.000082335
     0.000086796
     0.000017127
     0.000000701
    -0.000528136
     0.000138393
     0.000073145
    -0.000645418
     0.000017881
    -0.000000068
    -0.000552917
    -0.000030294
    -0.001776390
    -0.001167496
    -0.000000116
    -0.001468239
    -0.000410482
    -0.000122749
    -0.000286960
    -0.000636744
    -0.001081769
    -0.000981354
     0.000000104
    -0.001164078
    -0.000939830
    -0.000311791
    -0.000012362
    -0.000000002
    -0.000371394
     0.000000000
     0.000000000
    -0.000125815
    -0.000228837
     0.000000054
     0.000018944
    -0.000451633
     0.000000004
    -0.000214645
    -0.000000084
    -0.001158142
    -0.002021660
    -0.000190990
    -0.001358240
    -0.000078908
    -0.000000598
    -0.000966672
    -0.000956674
    -0.000890909
    -0.000934747
    -0.001006956
    -0.000953424
    -0.000713653
     0.000067178
    -0.001162262
    -0.000497635
    -0.001027273
    -0.000552488
     0.000080918
    -0.000994146
    -0.000521761
    -0.000074569
    -0.000000304
    -0.000647605
    -0.001069435
    -0.001489424
    -0.000014413
    -0.000016131
    -0.001332512
    -0.001285363
    -0.001277081
    -0.000560719
     0.000000714
    -0.001500732
    -0.001130893
    -0.001084035
    -0.000802763
    -0.000385813
     0.000003447
    -0.000434218
    -0.000120113
    -0.000677187
    -0.000460195
     0.000001095
    -0.000875608
    -0.000366145
    -0.000871009
    -0.000769185
    -0.000028882
     0.000000002
    -0.000001035
     0.000000008
    -0.000621751
    -0.000841502
    -0.000000015
    -0.001419619
    -0.001223749
    -0.000303424
    -0.000000041
    -0.001436604
    -0.000032950
     0.000000000
     0.000000000
    -0.001085728
     0.000126822
    -0.000062354
    -0.000263908
    -0.001042298
     0.000150393
    -0.000884773
     0.000001011
     0.000018812
     0.000397972
    -0.000879332
     0.000020631
    -0.000689592
     0.000000000
     0.000001432
     0.000010059
    -0.000554761
    -0.000044161
    -0.000187758
    -0.000026887
    -0.000265477
    -0.000147333
    -0.001223659
    -0.000043595
    -0.000651057
     0.000020031
    -0.001040542
    -0.001200259
    -0.000209841
    -0.000691406
     0.000041633
    -0.001152702
     0.000502627
    -0.001082262
     0.000000176
    -0.000546760
    -0.001070054
     0.000002496
    -0.001038788
     0.000012907
     0.000097128
    -0.000149508
    -0.001036013
     0.000136321
    -0.000970621
     0.000001038
     0.000066369
     0.000101437
    -0.000927000
    -0.001473347
    -0.000852394
    -0.001207179
    -0.001071066
    -0.001430923
     0.000008782
     0.000078222
     0.000000104
     0.000000364
     0.000006569
     0.000097717
     0.000000000
     0.000008434
     0.000000026
    -0.000072163
    -0.000475242
     0.000000231
     0.000002640
     0.000097870
    -0.000443599
     0.000000378
     0.000021882
     0.000000009
     0.000000012
     0.000159553
    -0.000000004
    -0.000000114
    -0.000000002
    -0.000000056
    -0.001365643
    -0.000735490
    -0.001226764
    -0.001036692
    -0.001273736
    -0.000994865
    -0.001219791
    -0.001312033
    -0.000840723
    -0.001081861
    -0.000865373
    -0.001053918
     0.000075815
     0.000003194
    -0.000000007
     0.000080579
     0.000099196
    -0.000000001
    -0.000287194
    -0.000033065
     0.000012823
     0.000022759
    -0.000598955
    -0.000215220
    -0.000201359
    -0.000845647
    -0.000616571
    -0.000726969
    -0.000564737
    -0.000402752
    -0.000996482
    -0.000954276
    -0.000779862
    -0.000710334
    -0.000158608
    -0.000947001
    -0.000317272
    -0.000892736
    -0.000521521
    -0.001077976
    -0.000622348
    -0.001057902
    -0.000816143
    -0.001068339
    -0.000582786
    -0.000000011
    -0.000998126
    -0.000506241
    -0.001134883
    -0.000415429
    -0.000013703
    -0.001229718
    -0.000908887
     0.000034334
    -0.000145636
     0.000000037
    -0.000923431
    -0.000834688
     0.000141136
     0.000048564
     0.000000013
    -0.000693845
    -0.000600906
    -0.000838726
    -0.000388571
    -0.000779349
     0.000059053
    -0.000489754
     0.000130839
    -0.000297564
    -0.000538156
     0.000040866
     0.000052349
    -0.000588503
    -0.000294415
     0.000033098
     0.000206845
     0.000092827
    -0.000008100
    -0.000020077
    -0.000003506
    -0.000009854
    -0.000001617
    -0.000040585
    -0.000001205
    -0.000000001
    -0.000034343
    -0.000336613
     0.000000000
    -0.000338307
     0.000052872
     0.000021399
    -0.000027301
    -0.000987176
    -0.000150246
     0.000000638
     0.000004429
    -0.000467547
    -0.000007786
    -0.000878764
    -0.001006508
    -0.000624447
    -0.000826243
    -0.000909946
    -0.000009163
    -0.000916138
    -0.000176689
    -0.000002731
    -0.000046538
     0.000000003
     0.000000001
     0.000179947
     0.000106393
    -0.000588353
    -0.000368160
     0.000001816
     0.000000071
    -0.000580730
    -0.000289332
    -0.000258056
     0.000000563
    -0.000250978
    -0.000772295
    -0.000000002
    -0.000128372
    -0.000848662
    -0.000191699
     0.000011460
    -0.000209631
    -0.000002393
    -0.001099446
    -0.000816520
    -0.000047849
    -0.000322190
    -0.000571900
    -0.000002645
    -0.001122537
    -0.000123369
     0.000004329
     0.000000009
     0.000000012
    -0.001141400
     0.000101111
     0.000017213
    -0.001044669
    -0.001002489
    -0.000765679
    -0.000706646
    -0.000755588
    -0.000731930
    -0.001064660
    -0.001009822
     0.000107920
     0.000145972
     0.000005235
     0.000009516
    -0.000151735
    -0.001044585
    -0.000957731
    -0.000811350
    -0.000900836
    -0.000917188
    -0.000170775
    -0.001089972
    -0.000267634
    -0.000225825
     0.000001541
    -0.000121040
     0.000137382
    -0.000938138
     0.000081300
    -0.001076720
     0.000108188
    -0.000493860
     0.000006764
    -0.000928659
    -0.001090107
    -0.000000012
    -0.001128451
    -0.000967548
    -0.001146450
    -0.000923864
    -0.000001234
    -0.000000004
    -0.001184086
    -0.000864076
     0.000000000
     0.000196941
    -0.000087412
    -0.000911833
    -0.000927198
    -0.000099844
    -0.000474679
    -0.000962177
    -0.000479198
     0.000224050
     0.000000580
    -0.001090816
    -0.000163046
     0.000003277
     0.000000001
    -0.000844466
    -0.000000001
    -0.001143085
    -0.001140283
    -0.000000002
    -0.000982390
    -0.000883234
    -0.001059529
    -0.000000001
    -0.000009564
    -0.000841260
    -0.000444935
    -0.000274016
    -0.000794778
    -0.000008828
    -0.001106567
    -0.000798337
    -0.000753145
     0.000003215
     0.000152559
     0.000008243
     0.000000024
    -0.000664956
     0.000020319
    -0.000000500
    -0.000643706
    -0.000731153
    -0.000816459
     0.000070461
    -0.000528210
    -0.000438618
    -0.000668228
    -0.000879301
     0.000000465
    -0.000094827
    -0.000268973
    -0.000000171
    -0.000008158
    -0.001088047
    -0.000985599
    -0.001029352
    -0.001080112
    -0.000000217
    -0.000009548
    -0.000732653
    -0.000648381
     0.000000001
    -0.001277807
    -0.000925988
    -0.001014625
    -0.000599071
    -0.000909704
    -0.000810796
    -0.001285976
    -0.001016789
     0.000000261
    -0.000000004
     0.000139541
     0.000002984
     0.000000020
     0.000052898
    -0.000001463
    -0.000794115
    -0.000660117
    -0.001965067
    -0.001051134
    -0.001942124
    -0.001589515
    -0.001618030
    -0.001596525
    -0.001626580
    -0.000000057
    -0.000003573
    -0.000003454
    -0.000065276
    -0.000000007
    -0.000000023
    -0.000700903
    -0.000871654
    -0.000000003
    -0.000000005
    -0.000340253
    -0.000000020
    -0.000876207
    -0.001441825
    -0.001922942
    -0.001557269
    -0.001921518
    -0.001923805
    -0.002004865
    -0.002013319
    -0.001956024
    -0.001958740
    -0.001865136
    -0.001939980
    -0.001876401
    -0.000057097
    -0.001010757
    -0.000249275
    -0.001654066
    -0.000004427
    -0.001831237
    -0.000012513
    -0.001904025
    -0.000000029
    -0.000005112
    -0.000012321
    -0.000055023
    -0.001949963
    -0.001919799
    -0.000054694
    -0.001954332
    -0.001884862
    -0.001891686
    -0.000868480
    -0.001536697
    -0.000614746
    -0.000819372
    -0.002044118
    -0.000069027
    -0.002019966
    -0.000081714
    -0.000021210
    -0.000000020
    -0.000039037
    -0.000000023
    -0.001688915
    -0.001674046
    -0.001689454
    -0.001671163
    -0.000044366
    -0.001723887
    -0.000051005
    -0.001729058
    -0.002046709
    -0.000225287
    -0.002044147
    -0.000231761
    -0.000000489
    -0.001557914
    -0.000001270
    -0.001653581
    -0.002136730
    -0.001796093
    -0.002106595
    -0.001852462
    -0.001733056
    -0.000006213
    -0.001811759
    -0.000009408
    -0.001976073
    -0.001961199
    -0.001974301
    -0.001969859
    -0.000000003
    -0.002019578
    -0.000000001
    -0.000000006
    -0.002004899
    -0.000000001
    -0.002031753
    -0.002015032
    -0.001962328
    -0.000000027
    -0.000014228
    -0.000029826
    -0.000638145
    -0.000741642
    -0.000847080
    -0.001043276
    -0.002011533
    -0.001999419
    -0.000000936
    -0.000776676
    -0.001866862
    -0.001121491
    -0.001913377
    -0.000631842
    -0.001587092
    -0.001561755
    -0.001579719
    -0.001555972
    -0.000082893
    -0.000005712
    -0.000001967
    -0.000000030
    -0.000809090
    -0.000609863
    -0.000000017
    -0.000000004
    -0.000875564
    -0.000000067
    -0.000264859
    -0.000000004
    -0.000000003
    -0.001855594
    -0.001574321
    -0.001865522
    -0.001435751
    -0.001888541
    -0.001963024
    -0.001961388
    -0.001864110
    -0.001821383
    -0.001883271
    -0.001816719
    -0.001916924
    -0.001626728
    -0.000306556
    -0.000859449
    -0.000047307
    -0.001825198
    -0.000018271
    -0.001745543
    -0.000004790
    -0.000006448
    -0.000000006
    -0.000053093
    -0.000008029
    -0.001866036
    -0.001901959
    -0.001888764
    -0.000065520
    -0.001843843
    -0.001844285
    -0.001560681
    -0.000763223
    -0.000700834
    -0.000810384
    -0.000080776
    -0.001992503
    -0.000033770
    -0.002041018
    -0.000000114
    -0.000080126
    -0.000000002
    -0.000009765
    -0.001661000
    -0.001674358
    -0.001673477
    -0.001669465
    -0.001717392
    -0.000093071
    -0.001707220
    -0.000062909
    -0.000181355
    -0.002034245
    -0.000150095
    -0.002030316
    -0.001779470
    -0.000004582
    -0.001489670
    -0.000000362
    -0.001873912
    -0.002070324
    -0.001553907
    -0.002146425
    -0.000013961
    -0.001883525
    -0.000001810
    -0.001592149
    -0.001945286
    -0.001962893
    -0.001839595
    -0.001954962
    -0.000000001
    -0.001975802
    -0.000000033
    -0.002006329
    -0.000000005
    -0.001932213
    -0.002015001
    -0.000000009
    -0.001947865
    -0.000000001
    -0.000070912
    -0.000008069
    -0.000965773
    -0.000649439
    -0.001242476
    -0.000545261
    -0.001979141
    -0.002020758
    -0.000806498
    -0.000000030
    -0.000867294
    -0.000001575
    -0.002069908
    -0.002026393
    -0.000000283
    -0.001700212
    -0.001356692
    -0.001671348
    -0.001700946
    -0.000005182
    -0.000000014
    -0.000824346
    -0.000002912
    -0.001474427
    -0.001727148
    -0.001628154
    -0.001632726
    -0.000023334
    -0.001459514
    -0.001573040
    -0.002093258
    -0.000000001
    -0.000000101
    -0.002026466
    -0.002077461
    -0.000000011
    -0.001553728
    -0.000012791
    -0.002136189
    -0.001135095
    -0.001986759
    -0.000021677
    -0.001984599
    -0.000371766
    -0.000006028
    -0.000689628
    -0.002111696
    -0.000001744
    -0.000049058
    -0.000630754
    -0.001938612
    -0.001968819
    -0.000005294
    -0.001694712
    -0.001630121
    -0.002055759
    -0.001998827
    -0.000070952
    -0.000152635
    -0.001980118
    -0.001612883
    -0.002127969
    -0.000004335
    -0.001556144
    -0.000000000
    -0.000825649
    -0.000825502
    -0.000000202
    -0.001986969
    -0.002056423
    -0.000000257
    -0.001641170
    -0.001655268
    -0.001702050
    -0.001506219
    -0.001685768
    -0.001489567
    -0.001634891
    -0.001652328
    -0.000000456
    -0.000507645
    -0.000000141
    -0.000000590
    -0.000921251
    -0.000044569
    -0.002105861
    -0.001741191
    -0.002110002
    -0.001746595
    -0.000968628
    -0.000046838
    -0.000000018
    -0.002057333
    -0.002032852
    -0.000000024
    -0.000000001
    -0.001949664
    -0.001956205
    -0.000436214
    -0.000059329
    -0.000408961
    -0.000054657
    -0.001944108
    -0.001954107
    -0.000000732
    -0.002107375
    -0.001039015
    -0.000000917
    -0.002074779
    -0.001736922
    -0.001171792
    -0.000019604
    -0.002081419
    -0.001747257
    -0.001200858
    -0.000019722
    -0.001986542
    -0.000114642
    -0.000105063
    -0.001982083
    -0.000727936
    -0.000910460
    -0.001843323
    -0.000004383
    -0.000000017
    -0.000009854
    -0.000031579
    -0.000000003
    -0.000079754
    -0.000000033
    -0.001558644
    -0.000493447
    -0.001205060
    -0.000525589
    -0.001446065
    -0.001714650
    -0.001136458
    -0.001622405
    -0.001525378
    -0.000015080
    -0.000021651
    -0.000022223
    -0.002036186
    -0.001100430
    -0.000572139
    -0.001846084
    -0.001911692
    -0.000013665
    -0.000063208
    -0.000031457
    -0.001846784
    -0.000000418
    -0.000182670
    -0.000002246
    -0.001780052
    -0.000000762
    -0.000002235
    -0.000001865
    -0.001623758
    -0.001187400
    -0.000075591
    -0.001674964
    -0.001378644
    -0.000000185
    -0.001452886
    -0.001207821
    -0.000593891
    -0.000761311
    -0.001975482
    -0.001603725
    -0.000066636
    -0.000138556
    -0.001438517
    -0.001286986
    -0.000774664
    -0.000002477
    -0.001998603
    -0.002045455
    -0.000413993
    -0.001417289
    -0.000653348
    -0.000000006
    -0.001059350
    -0.000000068
    -0.000000176
    -0.000330078
    -0.000047531
    -0.001557589
    -0.001631514
    -0.001518514
    -0.001579525
    -0.002021183
    -0.002028963
    -0.001763958
    -0.002098385
    -0.001933819
    -0.001992726
    -0.001305493
    -0.001648866
    -0.000169983
    -0.001361556
    -0.000000008
    -0.000001380
    -0.001805774
    -0.002069280
    -0.000001029
    -0.000031158
    -0.000541911
    -0.001982009
    -0.000011182
    -0.000655881
    -0.001800375
    -0.001942244
    -0.001914145
    -0.001924056
    -0.000444564
    -0.001960787
    -0.001802019
    -0.001933296
    -0.002046241
    -0.000048218
    -0.001917936
    -0.001902011
    -0.000006060
    -0.000134506
    -0.000000006
    -0.000041600
    -0.000000001
    -0.000070265
    -0.000788415
    -0.000000002
    -0.000068050
    -0.002017919
    -0.001017561
    -0.001910935
    -0.000000026
    -0.000000004
    -0.000051910
    -0.000554951
    -0.001591024
    -0.001609797
    -0.001589606
    -0.001631043
    -0.000000315
    -0.001033179
    -0.000004352
    -0.001460780
    -0.000530446
    -0.001943727
    -0.001119889
    -0.001948859
    -0.000183150
    -0.000002868
    -0.000000048
    -0.001761723
    -0.001247039
    -0.002026518
    -0.002026329
    -0.001935656
    -0.000000505
    -0.000376737
    -0.000480633
    -0.001942421
    -0.001889818
    -0.001874132
    -0.001962557
    -0.001903293
    -0.000000012
    -0.001900039
    -0.000003061
    -0.001934354
    -0.001995055
    -0.001934989
    -0.000003393
    -0.001942015
    -0.000176629
    -0.000022181
    -0.000476890
    -0.000179228
    -0.001852422
    -0.001934481
    -0.001896937
    -0.000800853
    -0.002004326
    -0.001785706
    -0.001994223
    -0.001886039
    -0.000004623
    -0.000002168
    -0.000008792
    -0.000005307
    -0.000018467
    -0.000000601
    -0.000019008
    -0.000000853
    -0.001621559
    -0.001612530
    -0.001623623
    -0.001612463
    -0.002019805
    -0.002059725
    -0.002014242
    -0.002060964
    -0.002050860
    -0.002059253
    -0.002031378
    -0.002046587
    -0.000051171
    -0.000005838
    -0.000057334
    -0.000014647
    -0.000669598
    -0.000354332
    -0.000809910
    -0.000499933
    -0.000913343
    -0.000281795
    -0.000961795
    -0.000349296
    -0.001869228
    -0.001875370
    -0.001873151
    -0.001864778
    -0.001673081
    -0.000872211
    -0.001903003
    -0.001886019
    -0.001213086
    -0.001415340
    -0.001893200
    -0.001892981
    -0.000000006
    -0.000000002
    -0.000000001
    -0.000000020
    -0.000000003
    -0.000930056
    -0.000000027
    -0.000827861
    -0.000005245
    -0.002051470
    -0.002131062
    -0.000000058
    -0.001801440
    -0.001687370
    -0.001674151
    -0.001687571
    -0.000006728
    -0.000835673
    -0.000000015
    -0.000002145
    -0.001701950
    -0.001761937
    -0.001506050
    -0.000993681
    -0.002174898
    -0.001467592
    -0.000802183
    -0.000003485
    -0.000000742
    -0.002113876
    -0.000000016
    -0.002077211
    -0.000000001
    -0.001703778
    -0.002104365
    -0.000061600
    -0.001722228
    -0.000984532
    -0.002014593
    -0.000129419
    -0.002002628
    -0.000010723
    -0.002127113
    -0.000695384
    -0.000000938
    -0.002002195
    -0.002050884
    -0.000210110
    -0.000005416
    -0.001394929
    -0.000001496
    -0.002179523
    -0.001451182
    -0.000342786
    -0.002039857
    -0.002028941
    -0.000024179
    -0.002070580
    -0.001848696
    -0.001783404
    -0.000012272
    -0.000906522
    -0.000821429
    -0.000000001
    -0.000001932
    -0.002082625
    -0.002035692
    -0.000000006
    -0.001714994
    -0.001802194
    -0.001674319
    -0.001678981
    -0.001721034
    -0.001690680
    -0.001126376
    -0.001417343
    -0.000000612
    -0.000000401
    -0.000449019
    -0.000000056
    -0.001710258
    -0.002202864
    -0.000017643
    -0.000429421
    -0.000167196
    -0.001365065
    -0.001969479
    -0.002134196
    -0.000000043
    -0.000000574
    -0.002071575
    -0.002100026
    -0.000243238
    -0.000839410
    -0.001978640
    -0.001998853
    -0.002004054
    -0.001986897
    -0.000012278
    -0.000146266
    -0.000002464
    -0.001167787
    -0.002161024
    -0.000000050
    -0.001606838
    -0.002152836
    -0.000015089
    -0.000768044
    -0.002021861
    -0.002084125
    -0.000059656
    -0.001326511
    -0.000383793
    -0.002034091
    -0.002016166
    -0.000023134
    -0.000199441
     0.000000002
     0.000248677
    -0.000001077
    -0.000214099
    -0.001186234
     0.000023436
    -0.000849038
    -0.001445214
    -0.000061401
    -0.000671803
    -0.001129390
     0.001072188
    -0.000577326
     0.000009897
    -0.001296121
     0.000297869
    -0.000641619
    -0.000492202
    -0.000422835
     0.000273062
    -0.000504347
     0.000000131
     0.000233507
    -0.000785158
    -0.001262231
    -0.000485421
    -0.000425487
     0.000272906
    -0.000571916
    -0.001104377
    -0.000213754
    -0.000002925
    -0.000175089
     0.000001989
    -0.000000005
    -0.002134506
    -0.000332664
    -0.001170122
    -0.001702505
     0.000612634
    -0.000296137
    -0.000194903
    -0.000000023
    -0.000000110
    -0.001359051
     0.000037599
    -0.000403497
    -0.001458737
     0.000166568
    -0.000370799
    -0.001108773
     0.000793414
    -0.000006165
    -0.000571560
    -0.000000156
    -0.000738903
     0.000052194
    -0.000000000
    -0.001570809
    -0.000630303
    -0.000751354
    -0.000623643
    -0.000645754
    -0.000012434
    -0.000119057
    -0.000655153
    -0.000368483
    -0.000725176
     0.000524338
     0.000015278
     0.000035592
     0.000657164
    -0.000396973
    -0.000733323
     0.000000004
    -0.000305104
     0.000256279
    -0.000697629
     0.000427497
    -0.001219438
     0.000587257
    -0.000057330
     0.000866402
    -0.001027863
    -0.000116036
    -0.000906077
     0.000215025
    -0.000553632
    -0.000000000
     0.000754074
    -0.000433407
    -0.000065785
     0.000000001
     0.000484321
     0.000376657
    -0.001178876
     0.000418756
     0.001056516
     0.000852453
    -0.000000309
    -0.000000238
    -0.000000004
    -0.000244814
    -0.001667248
     0.001130053
    -0.002485917
    -0.000223374
    -0.002213159
    -0.001846747
    -0.001080612
     0.000217443
     0.000110131
    -0.000090138
     0.000076965
     0.000006132
    -0.001086915
     0.000685286
     0.000181093
     0.000027721
    -0.001427622
    -0.000099503
    -0.000550201
     0.000210268
    -0.000692693
     0.000176018
    -0.000270197
    -0.000477679
     0.000022221
     0.000007438
    -0.000225271
    -0.001120814
     0.000970699
     0.000721223
    -0.002831604
    -0.000334181
     0.000000001
     0.000556048
    -0.002431775
     0.000136161
    -0.001989261
    -0.001330194
     0.000032835
    -0.000000049
    -0.001559032
    -0.000000009
    -0.001609804
    -0.000679623
     0.000895399
    -0.001628468
     0.000154830
    -0.000000000
     0.000123530
    -0.000001143
    -0.000008240
    -0.000003049
     0.000166017
    -0.001926156
    -0.000878890
    -0.001486767
     0.000131161
     0.000002111
     0.000694636
     0.000000135
    -0.000469000
    -0.001036389
    -0.000560397
    -0.000000438
     0.000000011
     0.000048629
     0.000061411
    -0.002267184
    -0.000145826
    -0.001662955
     0.000427708
     0.000454712
    -0.000637481
    -0.000120079
    -0.001163101
    -0.000331009
     0.000143924
     0.000238488
     0.000113378
    -0.000058978
    -0.001090874
    -0.001043356
     0.000147727
     0.000271070
     0.000594785
     0.001012912
    -0.002011915
    -0.000019637
    -0.001806181
     0.000488201
    -0.000385137
    -0.000000001
    -0.000278613
    -0.000001789
     0.000535077
    -0.001021351
    -0.000853074
    -0.000944196
     0.000308571
     0.000000234
    -0.001308152
     0.001129211
     0.000984187
     0.000620726
    -0.001391407
     0.000724583
     0.000237143
    -0.000223843
    -0.000493359
    -0.003056895
    -0.000000120
    -0.000003252
    -0.000667223
    -0.001102099
     0.000326130
    -0.001031246
     0.000000002
     0.000000020
    -0.000000014
    -0.000014096
     0.000915590
     0.000001046
    -0.000000002
    -0.000819870
     0.001238192
    -0.001391720
    -0.001375503
    -0.000000000
    -0.000000063
    -0.002811602
     0.001484028
    -0.000001088
    -0.002816906
     0.000018178
    -0.000000005
    -0.001753899
    -0.001378747
    -0.000070774
    -0.000127863
    -0.001995497
    -0.000011657
     0.000042525
    -0.000000003
    -0.000001705
    -0.001505959
     0.000129682
    -0.000000006
    -0.000091483
    -0.000366521
    -0.000925184
     0.000049798
    -0.000716118
     0.000000019
    -0.000668294
     0.000388832
     0.000603670
     0.000392162
    -0.000001241
    -0.000111388
    -0.000000003
    -0.000128208
    -0.001377518
     0.000467517
    -0.001527487
     0.000610456
    -0.000178425
    -0.000076756
     0.000988466
     0.000000001
    -0.000003832
     0.000535163
     0.000034875
    -0.000000002
     0.000008043
    -0.000111082
    -0.000045818
    -0.000000006
    -0.000228246
     0.000753204
    -0.000165325
    -0.000008800
    -0.000994914
     0.000694332
    -0.000478622
     0.000703831
    -0.001358940
    -0.001546904
     0.000028537
    -0.000000327
    -0.001036459
    -0.000159823
    -0.000001309
    -0.000111709
     0.000952293
    -0.002841310
     0.000370049
     0.000009053
     0.000000030
    -0.000082931
    -0.000000000
    -0.000839316
     0.000188076
    -0.000169452
    -0.000040824
    -0.000144313
     0.000448079
    -0.000000850
    -0.000108693
    -0.000131251
    -0.000771940
     0.000014849
     0.000000556
    -0.002336790
     0.000974355
    -0.000006869
    -0.000118698
    -0.000173126
    -0.000196029
    -0.000124352
     0.001231628
    -0.000528009
    -0.000931335
    -0.001233445
    -0.000026239
     0.000058582
    -0.000721378
    -0.001239548
     0.000737127
    -0.000123389
     0.000460335
    -0.000221335
    -0.001176493
    -0.000001563
     0.000859030
    -0.001359032
     0.000001218
     0.000021202
    -0.000000000
    -0.000365717
    -0.000000020
     0.000989604
    -0.001393532
     0.000074309
    -0.000693153
     0.000850106
    -0.000436338
     0.000000527
    -0.000002251
    -0.000583488
    -0.000003817
    -0.000150457
    -0.000000313
    -0.001186122
    -0.000004211
    -0.000262877
     0.000395683
    -0.000000355
    -0.000800149
    -0.000308802
    -0.000016989
    -0.000000348
    -0.000629369
    -0.000169499
    -0.000002388
    -0.000000348
    -0.000079910
    -0.000016769
    -0.000170343
    -0.000000026
    -0.001068285
     0.000468828
     0.000076544
    -0.000545361
    -0.000000006
     0.000011598
    -0.000000238
    -0.000041477
     0.000254344
    -0.000021071
    -0.000361188
    -0.000208431
     0.001252136
     0.000115173
     0.001162022
    -0.001263825
    -0.000800645
    -0.000002361
    -0.000683588
     0.000774806
     0.001362272
    -0.000000669
    -0.000017993
     0.000048381
    -0.000000008
     0.000667158
    -0.000083917
     0.000967605
    -0.000000007
     0.000933978
    -0.000000001
    -0.000057848
     0.001196112
    -0.000000756
     0.000794495
     0.001310887
    -0.000007595
     0.000597685
    -0.000022072
     0.001131996
     0.000969777
     0.001137289
     0.000660937
    -0.000334635
    -0.000003992
    -0.000000730
     0.000853710
    -0.000000007
     0.000439638
    -0.000027564
     0.001728514
    -0.000092645
    -0.000000018
    -0.000025533
    -0.000090352
     0.001046771
    -0.000036568
    -0.000028632
    -0.000000081
    -0.000000015
     0.001184443
    -0.000079644
     0.001662505
     0.000896291
    -0.000000001
     0.001150302
    -0.000222718
    -0.000035153
    -0.000140820
     0.000632425
     0.000064624
     0.000925361
    -0.000000012
     0.001685941
    -0.000000031
     0.001644160
     0.000485630
     0.001999735
     0.001679530
     0.001827826
     0.001473831
     0.000006019
     0.001824121
     0.000120251
    -0.000000001
     0.000688797
    -0.000001011
     0.001231435
     0.000835054
     0.001462142
     0.001449330
     0.001773691
    -0.000025668
     0.002041803
     0.001861721
     0.001508485
    -0.000358109
     0.001751307
     0.001416342
     0.001679398
     0.002061669
     0.000087516
    -0.000121442
    -0.000000302
     0.000190313
     0.001753039
    -0.000013064
    -0.000299987
    -0.000002504
    -0.000000034
    -0.000001142
     0.001907717
    -0.000004800
     0.001336881
     0.000030593
     0.001480146
    -0.000178151
     0.001967701
     0.002189531
     0.002084123
     0.000497356
     0.001680315
     0.000569526
     0.000016207
     0.001493850
    -0.000002508
     0.001107505
     0.002089917
     0.002236987
     0.001735390
     0.002103825
     0.000141197
    -0.000000007
    -0.000019462
    -0.000425994
    -0.000039115
    -0.000002627
    -0.000000529
    -0.000512384
    -0.000000043
    -0.000000008
    -0.000306240
     0.000203015
    -0.000023744
     0.000656687
     0.000000882
    -0.000000013
    -0.000000005
    -0.000063240
    -0.000615359
    -0.000195202
    -0.000608923
    -0.000001114
    -0.000001182
    -0.000000008
     0.000505109
    -0.000002183
    -0.000000146
    -0.000565536
     0.000057220
    -0.000004883
    -0.000273733
     0.000604462
    -0.000183202
    -0.000008412
    -0.000313065
     0.000722532
     0.000851416
     0.000721683
    -0.000000008
     0.001914572
     0.002021885
     0.001301479
     0.000288154
     0.001451745
     0.001587872
     0.001279780
     0.001548452
     0.001743155
     0.000215666
    -0.000000001
     0.001470138
     0.001549096
     0.001785382
     0.001568671
     0.001447505
     0.001262637
     0.000205750
     0.001874742
     0.002222271
     0.001470345
    -0.000000069
    -0.000002015
     0.000780535
     0.001571082
    -0.000000001
     0.001322353
    -0.000004648
     0.000003853
     0.001810301
    -0.000002562
     0.001483055
     0.001862724
    -0.000000762
     0.001769881
    -0.000006916
     0.001321355
     0.001770981
     0.002055520
     0.001101185
     0.001447416
     0.001385610
     0.001251922
     0.002067326
     0.001758520
     0.001303920
     0.000005302
     0.001707560
    -0.000000418
     0.002215410
     0.001582785
    -0.000000001
     0.001440907
     0.000409213
     0.002120389
     0.001424420
     0.001747024
     0.001591579
     0.000043347
    -0.000000308
     0.001709043
     0.000000003
    -0.000280348
    -0.000010075
    -0.000381281
    -0.000000929
    -0.002016602
     0.000006776
     0.000228696
    -0.000595297
    -0.000486798
     0.000000124
     0.000442531
    -0.000390977
     0.000033858
    -0.000670315
    -0.000764129
    -0.001834418
     0.000145870
    -0.000200728
    -0.002146441
     0.000768763
    -0.001554987
     0.000647975
     0.000001898
    -0.000158657
    -0.000109810
    -0.000000001
    -0.002502627
     0.000781119
     0.000304069
    -0.001228068
    -0.000938206
    -0.001717489
    -0.000000000
    -0.000098910
     0.000719994
    -0.000365898
     0.000006203
    -0.001044683
     0.000001349
    -0.000878503
    -0.000977709
     0.000806341
    -0.000952216
    -0.000655091
     0.000572321
    -0.000601888
     0.000977456
    -0.002093962
     0.001087977
     0.000190347
    -0.001710562
    -0.000000759
     0.000007527
    -0.002188930
     0.000506146
     0.000828503
    -0.000303133
    -0.000529962
     0.000000001
     0.000023620
    -0.000017263
    -0.002364916
    -0.000731248
    -0.000564798
    -0.000801410
    -0.001266828
    -0.000000104
    -0.000000058
    -0.000518588
    -0.001022002
     0.000394601
    -0.000590154
     0.000000009
    -0.000400242
     0.000149154
    -0.000858006
    -0.000133844
     0.000178957
     0.000572582
    -0.000000008
    -0.000069985
    -0.002456661
    -0.001237590
    -0.000432766
    -0.000660754
    -0.001959826
     0.000294207
    -0.002662152
    -0.000323771
    -0.000364810
    -0.000000059
    -0.000217584
     0.000556210
    -0.002375204
    -0.002371130
    -0.001028007
    -0.000000000
    -0.000759637
    -0.001659593
    -0.000000179
    -0.001257946
    -0.000000000
    -0.000659319
     0.000001966
     0.000413641
     0.000661311
     0.000523266
     0.000049818
    -0.001410662
    -0.001353924
    -0.000475124
    -0.000662939
    -0.000660092
     0.000143357
    -0.001617755
     0.000019344
    -0.001083640
    -0.000047434
     0.000684610
    -0.002064716
     0.000617974
    -0.000189569
     0.000000061
    -0.000096411
     0.000233889
    -0.000000002
    -0.000700208
    -0.001618727
    -0.001065181
    -0.001859218
    -0.000747902
    -0.000000034
    -0.000677299
    -0.001837296
    -0.001780509
    -0.000001454
    -0.000739471
     0.000008302
    -0.000590167
     0.000203776
     0.000485007
     0.000002959
    -0.000535638
     0.000245249
    -0.001917985
    -0.000055312
    -0.001096324
     0.000900603
    -0.001241394
    -0.001973207
     0.000177736
     0.000565574
    -0.000846006
     0.000071784
    -0.001493876
    -0.001538676
     0.000016696
     0.000422523
     0.000771996
     0.000354962
    -0.000000005
    -0.002234824
     0.000070699
    -0.000000006
    -0.000598607
    -0.001112544
    -0.000853067
    -0.000628765
     0.000000437
    -0.000683824
     0.000699088
    -0.002342503
    -0.000175045
     0.000296403
    -0.001754081
    -0.000572886
    -0.000000007
     0.000007793
     0.000192414
     0.000632532
    -0.000062786
    -0.001003907
    -0.000175665
    -0.001567691
    -0.002141311
    -0.000503841
    -0.000242232
     0.000215605
    -0.000073493
    -0.001241353
    -0.000667759
    -0.001706245
    -0.000947287
     0.000621422
    -0.001897670
    -0.000368656
    -0.000000016
     0.000236123
    -0.001664752
    -0.000486078
     0.000796804
     0.000643557
     0.000501012
     0.000745891
    -0.000149373
    -0.000000003
    -0.001303261
    -0.000726489
    -0.000297672
    -0.000753659
    -0.001242787
     0.000578287
     0.000753271
     0.000401445
     0.000018655
     0.001609327
     0.001743280
     0.001471350
    -0.000000076
    -0.000000017
    -0.000010392
     0.001165448
    -0.000000110
     0.001789737
     0.000021309
     0.001426706
     0.001289324
     0.001408204
     0.001594857
     0.001334826
     0.001139378
     0.001296192
     0.001096527
     0.000910332
     0.001376834
     0.001643388
     0.001319024
     0.001765531
     0.001754747
     0.001869985
     0.001585518
     0.001855188
    -0.000006103
    -0.000001622
     0.001857797
     0.001773751
    -0.000006711
     0.001785340
     0.001669329
     0.001755924
    -0.000007095
    -0.000000011
     0.001580080
    -0.000007219
    -0.000005167
     0.001499942
     0.000181816
     0.001814331
     0.001389301
     0.001776792
     0.001284187
    -0.000003711
     0.001427425
    -0.000004827
     0.001831686
     0.001240569
     0.001343647
     0.001928625
     0.001605759
     0.001487904
     0.000037312
    -0.000000294
     0.002061736
     0.001682442
     0.001949547
     0.000856237
     0.000556728
     0.000536212
     0.001912864
     0.001454164
     0.000703110
     0.001670126
    -0.000000000
     0.001169943
     0.001027835
     0.001239595
     0.001094736
     0.001497845
     0.001676596
    -0.000000018
    -0.000006532
    -0.000000865
     0.000100959
    -0.000000000
     0.001516258
     0.001585196
     0.001224800
     0.000431232
     0.000025313
     0.001891624
     0.001666275
     0.001135748
    -0.000000256
     0.001920559
     0.001344996
     0.001722999
     0.001431873
     0.001661085
     0.001473727
     0.001827368
     0.001753023
     0.001580268
     0.001232982
     0.001768481
     0.001393332
     0.001854216
     0.001683774
    -0.000006139
     0.001670625
    -0.000001520
     0.000225457
     0.001562037
    -0.000001652
     0.001710268
     0.000002602
    -0.000000011
    -0.000006102
     0.002014789
    -0.000004866
     0.002005681
     0.001255982
     0.001664546
     0.001229666
     0.000099358
     0.001518986
    -0.000000073
     0.001348133
     0.001553229
     0.001746694
     0.001222278
     0.000864738
     0.000666309
     0.000795402
     0.002027172
    -0.000000029
     0.001331566
     0.001992926
     0.000177135
     0.001401588
     0.001572132
     0.001713160
     0.001439619
     0.001408593
     0.001611650
     0.001192392
     0.001375958
     0.001716493
     0.000820840
     0.001483352
     0.001717264
     0.001721888
     0.000135708
     0.001419929
     0.001912430
    -0.000000143
     0.000143595
     0.001585624
     0.001055664
     0.002065742
    -0.000000088
     0.001433144
     0.000027250
     0.001362821
     0.001612742
    -0.000000486
     0.000005422
     0.001415359
     0.001866014
     0.001941368
    -0.000001342
     0.001815662
     0.001430592
     0.001276577
     0.001726286
     0.001996620
    -0.000000015
     0.001467386
     0.000219573
     0.001714004
     0.001464691
     0.002031683
     0.001643516
    -0.000001365
     0.000005275
     0.001764059
     0.001349418
     0.000335351
     0.001813578
    -0.000000009
    -0.000000156
     0.001534250
     0.000108838
     0.001999485
     0.001410819
