#
# Number of atoms
#
 72
#
# The current total energy in Eh
#
  -3731.728390174138
#
# The current gradient in Eh/bohr
#
      -0.000011305018
      -0.000022881783
      -0.000006019284
      -0.000004428223
       0.000012872945
       0.000006938148
       0.000008072268
      -0.000001006719
       0.000002109775
       0.000000784929
      -0.000002950545
      -0.000013920507
       0.000002109795
      -0.000002440226
      -0.000003313551
       0.000003980797
      -0.000000380701
      -0.000008700303
       0.000006738705
       0.000012274937
       0.000010048794
      -0.000002578329
      -0.000010211423
      -0.000002036056
       0.000002208779
       0.000009228939
      -0.000004961029
      -0.000004030527
       0.000004964950
       0.000002339981
       0.000006485795
      -0.000011215402
       0.000006642799
      -0.000002121837
       0.000014623163
      -0.000000790801
       0.000000391437
       0.000003078403
       0.000001936385
       0.000003620898
      -0.000002472878
      -0.000003172601
       0.000005888915
      -0.000000700542
       0.000006217706
       0.000004239739
       0.000003013859
       0.000000096939
      -0.000005500283
      -0.000002721611
       0.000002689966
      -0.000005284283
       0.000009061828
      -0.000002866131
      -0.000005059578
       0.000001678302
       0.000000972106
      -0.000002960575
       0.000005083009
       0.000001755235
      -0.000002625151
      -0.000002175611
      -0.000004469830
      -0.000006651067
      -0.000000985178
      -0.000000383147
      -0.000003309432
      -0.000003880145
      -0.000004922993
       0.000005887137
      -0.000003645673
       0.000004548263
      -0.000002927844
       0.000006006872
       0.000009401076
       0.000002650962
       0.000005930383
       0.000004374053
       0.000002593481
       0.000000324494
       0.000004398143
       0.000001327598
       0.000007449176
      -0.000000744264
      -0.000000829693
       0.000002892859
      -0.000002999068
       0.000003026444
       0.000007309174
       0.000000923765
      -0.000002812893
       0.000001000532
       0.000001604592
       0.000006318952
      -0.000000259162
      -0.000001124144
      -0.000002916714
       0.000007543425
       0.000003258518
       0.000001472694
       0.000002245752
       0.000007254333
      -0.000007842681
       0.000003300893
      -0.000000912382
      -0.000001106600
      -0.000003956411
       0.000002453599
       0.000002166666
       0.000003180412
       0.000001269483
       0.000002801704
       0.000006508523
       0.000007433910
       0.000002105660
      -0.000002001165
      -0.000000355761
       0.000001691180
      -0.000011369323
      -0.000002232660
      -0.000000520446
       0.000002301401
      -0.000005401442
      -0.000000572079
      -0.000002528337
      -0.000005415102
      -0.000002521626
      -0.000005278478
      -0.000001427669
      -0.000004346945
      -0.000006475163
      -0.000005953354
      -0.000004284720
      -0.000000336290
       0.000001184484
      -0.000011443940
      -0.000004116206
      -0.000007679529
      -0.000001138168
       0.000003754061
      -0.000002162188
       0.000001430629
       0.000001755974
       0.000002085185
      -0.000003963909
       0.000006548046
       0.000001349158
      -0.000005725071
      -0.000001291542
      -0.000003499272
       0.000001679291
      -0.000002189808
      -0.000000455420
       0.000003788797
       0.000002667102
       0.000001851836
      -0.000002817768
       0.000001975719
      -0.000001751203
       0.000001149520
       0.000001846381
       0.000001883432
       0.000001778049
      -0.000001297662
       0.000003150988
      -0.000000314472
      -0.000005562738
      -0.000003276302
      -0.000005062829
       0.000003642403
      -0.000000049342
      -0.000000159455
       0.000004028428
       0.000001508614
       0.000001742253
       0.000001720512
       0.000001217360
      -0.000001673616
       0.000000488170
      -0.000001075727
      -0.000003975499
      -0.000007137829
      -0.000007265142
      -0.000000251745
       0.000009085162
      -0.000001780042
      -0.000000442969
      -0.000005519172
       0.000003305286
       0.000006926621
      -0.000009531552
       0.000001542901
       0.000007839566
       0.000003659519
       0.000009424797
       0.000004276275
      -0.000000646845
       0.000002008240
       0.000002631212
      -0.000009981304
       0.000000575959
      -0.000005727752
      -0.000009086304
      -0.000003354556
       0.000005473001
       0.000005379132
      -0.000004525175
       0.000004038119
      -0.000008466419
      -0.000003249672
       0.000002193049
      -0.000008622384
       0.000001203586
       0.000007722723
      -0.000005102358
       0.000001286271
#
# The atomic numbers and current coordinates in Bohr
#
  40    -0.8077686    3.5635774    3.3841415 
  40     0.8298424   -3.3149814   -2.7980276 
  40     2.7824961   -2.3749388    3.2690305 
  40    -2.8835533    2.7415352   -2.6148372 
  40     3.3672680    2.3724213   -1.6414494 
  40    -3.5769200   -2.1261677    2.3924093 
   8    -3.3332922    1.4666475    0.9695474 
   8     3.4978573   -1.1774108   -0.3030569 
   8    -0.3481268   -3.5430354    0.8415159 
   8     0.2199881    4.1869621   -0.3718894 
   8     0.2580880    0.4794121   -3.2071022 
   8    -0.3229748   -0.2046485    4.0009299 
   8    -3.8588336    3.3126763    6.1340083 
   8    -3.3087768    6.7665107    2.5579336 
   8     1.3821844    3.2506421    7.0037229 
   8     1.9397786    6.8994172    3.7285615 
   8    -2.2914438   -6.0260955   -2.8761644 
   8    -1.2214302   -2.9091215   -6.4213300 
   8     3.1089719   -6.6030294   -1.8979287 
   8     3.9973990   -3.0189050   -5.4087235 
   8     1.1777796   -4.9842927    6.0194699 
   8     3.7950192   -0.2133521    6.6322862 
   8     4.2384353   -6.0897736    2.1238216 
   8     7.0162674   -1.8836874    3.3175180 
   8    -6.9319740    1.7043281   -2.4014917 
   8    -4.5332561    6.3174369   -1.4507867 
   8    -3.7947905    0.4119501   -5.9227836 
   8    -1.3023332    5.2563740   -5.4506218 
   8     2.8503583    5.0830554   -4.7680187 
   8     4.0873400    3.6536461    2.3076896 
   8     5.6536254    0.7883439   -4.7390684 
   8     8.1420560    0.9069776    0.3900056 
   8    -7.1170459   -1.5313577    0.3153526 
   8    -5.6797289   -0.4260305    5.4948170 
   8    -4.7251338   -5.7319463    0.5669708 
   8    -2.9929964   -4.7560503    5.5172000 
   6    -5.4594965    1.6462952    6.6099585 
   6    -4.4039168    7.4929345    0.5996884 
   6     2.8150176    1.5785419    7.8415875 
   6     3.9530682    5.9682332    3.0231812 
   6    -3.8527197   -6.8698757   -1.3001799 
   6    -2.7501852   -1.2915541   -7.1984764 
   6     4.1472104   -7.3072972    0.1087990 
   6     5.5911146   -1.3203627   -5.8003711 
   6    -1.0439038   -5.5641112    6.5751589 
   6     8.6107351   -0.6438978    2.1489787 
   6    -8.0786084    0.1561710   -1.0432429 
   6     0.9321430    5.9218472   -5.8555604 
   1    -3.2665156   -1.3906326   -9.2047043 
   1     5.0628847   -9.1657249    0.0853499 
   1     3.3140314    1.7047107    9.8512688 
   1    -5.3570781    9.3307081    0.6823809 
   1     7.0595123   -1.7125815   -7.2077084 
   1     1.2295282    7.3680090   -7.3092977 
   1     5.6833739    7.1086752    2.9804991 
   1    10.6013728   -0.9039335    2.6774544 
   1    -4.5454852   -8.7965281   -1.6301316 
   1   -10.1502123    0.2529966   -1.0661499 
   1    -6.7951975    2.0359141    8.1445768 
   1    -1.3044167   -6.9054750    8.1322667 
  13    10.6758773    9.6701528   -0.8571305 
  13     9.6412728    3.7109478   -1.1855787 
   1    10.5263714    4.8468152    1.7014776 
   1     6.8592768    4.8381355   -1.8612398 
   1    10.7283901    6.9547667   -2.3169272 
   1     8.1043662    9.9871220    0.6549608 
   1    12.8384338    8.9579171    1.4667810 
   1    11.7800494    2.5730795   -2.9136894 
  13    12.8557255    6.3451148    3.2466927 
   1    15.3997670    4.8861709    2.7158056 
   1    11.7403997    6.9763916    5.9383287 
   1    11.9893512   11.8756268   -2.3801811 
