#
# Number of atoms
#
 72
#
# The current total energy in Eh
#
  -3732.534390867703
#
# The current gradient in Eh/bohr
#
      -0.000066380317
       0.000022870631
       0.000041206149
       0.000006616998
       0.000069725121
      -0.000067511257
      -0.000033438489
      -0.000097416850
      -0.000036853483
      -0.000016951072
      -0.000091814393
      -0.000117149611
      -0.000047629537
       0.000008358182
      -0.000016572523
       0.000021026945
       0.000052063292
       0.000044599082
       0.000007224851
      -0.000032963985
      -0.000025471901
       0.000027141815
      -0.000017002388
      -0.000015592748
       0.000014664490
      -0.000015785703
       0.000039236615
       0.000082102574
       0.000027285174
      -0.000038169609
      -0.000072949291
      -0.000016529686
      -0.000019390428
      -0.000051966206
      -0.000021981723
      -0.000001809681
      -0.000002564818
       0.000039853223
      -0.000002248747
      -0.000008095923
       0.000048851840
       0.000067193979
       0.000022446378
      -0.000005516766
       0.000015653065
       0.000008924254
      -0.000038976030
      -0.000041423398
      -0.000010092917
      -0.000049963004
       0.000018808935
       0.000007510556
      -0.000021519335
       0.000053469745
       0.000008538093
      -0.000036885071
      -0.000025052896
      -0.000010267167
      -0.000015331479
      -0.000004560123
       0.000031700669
      -0.000011967797
       0.000041117997
       0.000037274553
      -0.000018439503
       0.000079642792
       0.000043880943
      -0.000021094465
       0.000064690161
      -0.000014856196
       0.000038378292
      -0.000031783906
       0.000003103624
       0.000014653401
      -0.000010429750
      -0.000001121174
       0.000043404171
       0.000012407971
       0.000006004785
       0.000008866200
       0.000063599151
      -0.000025980864
       0.000032476414
      -0.000017393940
       0.000028399284
       0.000013377442
      -0.000004845016
      -0.000007283293
      -0.000000908608
       0.000042265171
       0.000016579007
      -0.000002529123
       0.000019950055
       0.000010310720
      -0.000016328203
      -0.000085929448
       0.000004145342
      -0.000014349593
       0.000016101823
       0.000000226680
      -0.000029498400
      -0.000007170202
       0.000007870326
       0.000060311451
      -0.000004715584
      -0.000039567704
      -0.000002949898
      -0.000002751257
       0.000045222851
      -0.000015669409
      -0.000043548994
       0.000030600016
      -0.000084604502
      -0.000055363659
      -0.000025070707
      -0.000021439295
      -0.000058878730
      -0.000046182461
       0.000145745543
       0.000079733920
       0.000009980146
      -0.000000141021
       0.000000223418
      -0.000008258520
       0.000026252362
      -0.000017669123
      -0.000050490796
       0.000098696634
      -0.000004024179
      -0.000028529238
       0.000004053906
       0.000033862613
       0.000006294047
       0.000050933593
      -0.000056668515
       0.000027364266
       0.000014786680
      -0.000008957512
       0.000006045431
      -0.000026823903
       0.000027112685
      -0.000000204762
      -0.000056484338
       0.000049112974
       0.000007516490
      -0.000013148473
       0.000002771119
       0.000004937484
      -0.000003985639
       0.000000878965
      -0.000009596186
       0.000012716511
       0.000006259350
      -0.000002861855
       0.000002808126
       0.000012013130
       0.000004176895
       0.000002051090
      -0.000000082805
      -0.000004929804
       0.000000483067
      -0.000003862399
       0.000038634499
      -0.000035395466
      -0.000036667852
      -0.000004551535
      -0.000011303051
       0.000019615978
       0.000003169607
      -0.000005518973
       0.000004283745
       0.000001243438
      -0.000001325858
      -0.000008822553
       0.000002663605
       0.000000514610
       0.000006736603
       0.000001062980
      -0.000001987874
       0.000004189693
      -0.000026817023
       0.000061211600
       0.000014068191
       0.000129398374
       0.000026287339
      -0.000014510332
      -0.000031539364
       0.000087546504
       0.000040929024
      -0.000055756391
      -0.000020794993
      -0.000022897170
      -0.000025694519
      -0.000001438672
       0.000066415626
       0.000026883645
      -0.000026998907
       0.000003776989
      -0.000024980899
      -0.000046827122
      -0.000012480035
      -0.000016571927
      -0.000029101327
       0.000022772666
       0.000054619448
      -0.000011677977
      -0.000090401198
      -0.000006564970
      -0.000006485238
       0.000010790207
      -0.000019233563
       0.000004610403
       0.000000807553
       0.000001473448
      -0.000018268754
      -0.000014636578
#
# The atomic numbers and current coordinates in Bohr
#
  40    -0.8877782    3.5701673    3.6182320 
  40     0.7764706   -3.3879016   -2.8245843 
  40     2.7383165   -2.5824846    3.3777155 
  40    -2.7410920    2.7439970   -2.6009663 
  40     3.7477123    2.3841695   -1.5314059 
  40    -3.7506438   -2.1750433    2.4799143 
   8    -3.4100828    1.4690363    1.0795425 
   8     3.5033958   -1.2625849   -0.1984868 
   8    -0.4479399   -3.6257154    0.8822267 
   8     0.4149048    3.9740419   -0.1046820 
   8     0.4033080    0.4946782   -3.2719297 
   8    -0.3861053   -0.3044903    4.1991758 
   8    -3.9492706    3.2666599    6.4779280 
   8    -3.4812058    6.7834717    2.7525336 
   8     1.6170346    3.2435841    7.0878405 
   8     1.8435039    6.9035897    3.8044438 
   8    -2.0762249   -6.5891550   -2.8209086 
   8    -1.8170275   -2.9483625   -6.1080674 
   8     3.2613868   -6.6713178   -1.9565963 
   8     3.8212141   -3.1507830   -5.6636663 
   8     1.0228817   -5.2278660    6.1733697 
   8     4.0014743   -0.3020518    6.6523853 
   8     4.1575199   -6.3849624    2.2242227 
   8     7.1243592   -2.1540727    3.2594894 
   8    -6.6399978    1.1118819   -2.6765458 
   8    -4.6399822    6.2709882   -1.3421470 
   8    -3.4670392    1.0074548   -6.4599818 
   8    -1.1194299    5.6621690   -5.1393144 
   8     3.1086258    5.2596152   -4.5580951 
   8     4.8987862    4.6240977    1.8813508 
   8     5.7369754    0.6005489   -4.8804555 
   8     8.0411505    0.9172598    0.4122331 
   8    -7.5867956   -1.2660219    0.7817370 
   8    -5.7336330   -0.5745100    5.8352888 
   8    -5.0194496   -5.4087482    0.0846843 
   8    -3.2001334   -5.0903633    5.4706761 
   6    -5.4937135    1.5067610    6.9988233 
   6    -4.6486448    7.4262921    0.7631470 
   6     3.0883270    1.5466042    7.8988155 
   6     4.0359579    6.6475224    2.9169388 
   6    -3.9953842   -6.9613946   -1.4465265 
   6    -2.8244513   -1.1238691   -7.3223430 
   6     4.2021955   -7.4822992    0.0939695 
   6     5.4485423   -1.4366675   -6.0966535 
   6    -1.2416753   -5.8903600    6.6000721 
   6     8.6312682   -0.8556730    1.9872846 
   6    -8.1516908    0.1089513   -1.0887142 
   6     1.1654296    6.2611973   -5.5431030 
   1    -3.2086724   -1.4761946   -9.3908005 
   1     5.1822772   -9.3729622    0.0130056 
   1     3.6979871    1.6976155    9.9368086 
   1    -5.8194877    9.2032800    0.8712376 
   1     6.7690461   -1.7770968   -7.7345018 
   1     1.5068838    7.8477561   -6.9240492 
   1     5.3708969    8.3009549    3.0447676 
   1    10.7181614   -1.2376108    2.2240735 
   1    -4.9323038   -8.8706078   -1.6139259 
   1   -10.2296415    0.4664186   -1.4157185 
   1    -6.7832633    1.8291818    8.6639037 
   1    -1.5445737   -7.3357187    8.1363321 
  13    11.0370644    9.5545826   -1.4369646 
  13    10.0159985    3.5570456   -1.3061973 
   1    10.7700603    4.7484879    1.6834691 
   1     7.2989944    4.5312878   -2.4868826 
   1    11.4121499    6.6189943   -2.6139102 
   1     8.1761497    9.9388513   -0.4060079 
   1    12.8663356    9.1723631    1.3391852 
   1    12.3079554    1.9601717   -2.5354422 
  13    12.2031833    6.9292780    3.6191092 
   1    14.8857996    5.7250360    4.4421681 
   1    10.0609016    7.9921578    5.5188157 
   1    12.6026611   11.6310789   -3.0390648 
