#
# Number of atoms
#
 92
#
# The current total energy in Eh
#
  -4951.232018844699
#
# The current gradient in Eh/bohr
#
       0.000006190621
       0.000004926883
       0.000015773824
       0.000002859013
      -0.000007331191
      -0.000002079684
       0.000003067072
      -0.000013130899
       0.000004840666
      -0.000008439214
       0.000006633045
      -0.000010440900
      -0.000014286586
      -0.000002238777
      -0.000004974130
      -0.000006824670
      -0.000003031607
       0.000012342392
      -0.000000482688
      -0.000002242489
       0.000001942897
       0.000002359265
      -0.000002844156
      -0.000008497835
       0.000003288295
       0.000000696680
       0.000002856136
      -0.000003220521
       0.000001923301
      -0.000007885009
       0.000004060377
       0.000006053139
      -0.000005104283
      -0.000002394416
       0.000000905025
       0.000003221466
      -0.000008288164
      -0.000004221051
       0.000001572412
      -0.000007607350
      -0.000001678096
      -0.000000350955
       0.000006630407
      -0.000010129967
      -0.000000738487
       0.000007032424
       0.000002246663
      -0.000003587994
       0.000001513914
      -0.000006914918
       0.000002995138
      -0.000007956100
      -0.000000676892
      -0.000004606797
       0.000007798007
      -0.000004594031
      -0.000002152113
       0.000003008372
      -0.000000958704
      -0.000011440926
       0.000000937123
       0.000000701643
       0.000006373802
      -0.000000591702
       0.000007693522
       0.000006405064
       0.000000381307
      -0.000006083676
      -0.000004812684
       0.000008504916
      -0.000000209423
      -0.000001673345
      -0.000010069278
       0.000000529386
       0.000005604104
      -0.000005636277
       0.000006811337
       0.000001830101
      -0.000000200523
      -0.000003913923
      -0.000004357711
      -0.000001451219
       0.000004355811
      -0.000005866514
      -0.000005114628
       0.000004855823
      -0.000001223419
       0.000004901532
       0.000010459087
       0.000008129989
       0.000008869704
      -0.000003198023
      -0.000004117012
       0.000014891001
       0.000001378851
      -0.000000637936
      -0.000010226419
       0.000002224846
      -0.000002268573
      -0.000001197278
       0.000005320227
       0.000003143175
       0.000000565549
      -0.000008327367
      -0.000004332221
       0.000004604200
      -0.000006420169
       0.000003064757
       0.000003643895
       0.000001664408
      -0.000006085559
       0.000007515698
      -0.000006742912
       0.000000026043
      -0.000005498913
      -0.000003436158
      -0.000006397476
      -0.000001906207
      -0.000009972952
      -0.000008275512
      -0.000002867811
       0.000013467384
      -0.000001462523
       0.000003217116
       0.000006290201
       0.000007693830
      -0.000011246282
       0.000008523629
       0.000001070292
      -0.000009623191
       0.000003294745
       0.000011735641
      -0.000004596361
       0.000005680133
      -0.000010813975
      -0.000016700412
      -0.000002546685
      -0.000001413227
       0.000013190337
       0.000002361014
      -0.000004216440
       0.000005138769
      -0.000005120832
       0.000009989792
      -0.000000380644
       0.000001575376
       0.000000518390
      -0.000002752428
      -0.000000292590
      -0.000000806890
       0.000000314975
      -0.000002560044
      -0.000001540262
       0.000001827427
       0.000000170232
       0.000001079997
      -0.000002090921
       0.000000189582
       0.000000344983
       0.000000030760
      -0.000000225975
       0.000001139359
      -0.000000224476
      -0.000001995755
       0.000001570341
      -0.000001148950
      -0.000001043588
       0.000001589818
      -0.000002389610
       0.000001399198
      -0.000002065353
       0.000000397917
       0.000000503460
      -0.000001490677
       0.000000924398
      -0.000000090548
      -0.000001383818
      -0.000001640659
      -0.000000017832
      -0.000001840321
      -0.000009464308
      -0.000005319093
      -0.000004807699
       0.000009292905
       0.000010206037
       0.000008383998
       0.000010740913
      -0.000003598851
      -0.000005540307
      -0.000003598923
      -0.000014570159
       0.000023857673
      -0.000002663479
       0.000005238640
      -0.000007228528
      -0.000004481036
      -0.000006176207
      -0.000002402637
       0.000002413682
       0.000013175591
       0.000011926410
       0.000007446763
       0.000001258706
      -0.000003873737
      -0.000001608931
       0.000001264613
       0.000001346111
      -0.000003934350
      -0.000001790151
      -0.000001604563
      -0.000002994032
       0.000004033187
       0.000002200872
       0.000001088840
      -0.000006823669
       0.000008825405
       0.000005128315
       0.000006103885
       0.000000945229
       0.000001365787
      -0.000001803860
       0.000002367618
      -0.000003017420
       0.000004289217
       0.000005654652
       0.000001486762
      -0.000000325639
      -0.000000883955
       0.000001836084
      -0.000005712825
       0.000002870965
       0.000003284480
      -0.000000303494
       0.000000754160
       0.000004439427
       0.000000546515
       0.000003751067
      -0.000000353953
      -0.000001351888
      -0.000005896587
      -0.000000342932
       0.000001377944
       0.000000064011
      -0.000000291953
       0.000004475428
      -0.000008155980
       0.000002551761
       0.000002722610
      -0.000002438529
      -0.000004111273
      -0.000003897904
      -0.000003270299
       0.000001030062
      -0.000001397883
      -0.000000230011
       0.000004811662
      -0.000003392014
       0.000000362352
       0.000005381978
       0.000000531906
       0.000004122120
       0.000000603223
       0.000002318252
      -0.000004476544
       0.000001300353
       0.000001629495
      -0.000002900503
       0.000001410915
      -0.000001842638
       0.000001917403
      -0.000001798052
       0.000004849882
      -0.000005052585
       0.000002436219
       0.000003641046
       0.000001498554
#
# The atomic numbers and current coordinates in Bohr
#
  40    -1.6986645    4.0232855    2.3580572 
  40     0.8227021   -3.5117092   -2.5866604 
  40     3.6144674   -0.3756561    2.2979620 
  40    -4.6398180    0.8868089   -2.3655968 
  40     1.3849553    2.7623923   -3.5440335 
  40    -2.3913562   -2.2910337    3.4095486 
   8    -3.8198604    0.7076197    1.4209759 
   8     2.9268017   -0.1320288   -1.5043384 
   8     0.6493523   -3.0205232    1.2606690 
   8    -1.8068883    3.7220669   -1.4669544 
   8    -1.1818079   -0.3847904   -3.5575489 
   8     0.2619297    1.0090544    3.5869514 
   8    -3.9275039    3.7232270    6.3837292 
   8    -5.2584830    5.9412674    1.6871183 
   8     1.8499929    5.1407836    5.8690855 
   8     1.6055802    6.0339509    0.8661691 
   8    -1.0882424   -6.8703569   -1.1293216 
   8    -1.9686537   -4.8450149   -5.4287549 
   8     4.3094097   -5.5612241   -1.7796901 
   8     2.9822805   -3.1325486   -6.0693058 
   8     3.7545874   -2.8160962    5.6497590 
   8     4.8143732    2.1911639    5.4782216 
   8     6.2363992   -3.3671643    1.2501112 
   8     6.4800991    2.2078855    0.9059660 
   8    -7.9497661   -1.0460621   -0.6566016 
   8    -7.1281691    4.0447255   -1.5735175 
   8    -5.4116927   -2.5749217   -4.4952876 
   8    -4.8283840    2.7509708   -6.0070796 
   8    -0.8805034    4.0012864   -6.7734459 
   8     1.6282542    7.0085833   -3.1917875 
   8     3.1591401    1.0064000   -6.7967521 
   8     5.3692804    3.8940813   -2.8085171 
   8    -6.1953652   -3.4432456    2.3467409 
   8    -4.2764525   -0.4729964    6.5785582 
   8    -2.4645972   -6.4536663    2.8441194 
   8    -0.2625020   -3.5357344    6.6730759 
   6    -4.6882074    1.6768526    7.3857053 
   6    -6.9620093    5.7419539    0.0514242 
   6     3.9111951    4.0837997    6.4933065 
   6     1.6545689    7.6212396   -0.9433024 
   6    -1.7412438   -7.7091484    0.9931900 
   6    -4.1651786   -4.1035678   -5.8181472 
   6     6.0997284   -5.1407828   -0.3006098 
   6     3.6248143   -1.2448348   -7.3288590 
   6     2.0690067   -3.6934330    7.0379869 
   6     6.9318240    3.2744725   -1.1623792 
   6    -8.0410985   -2.5090678    1.1774155 
   6    -3.1675417    3.8268673   -7.3043204 
   1    -5.1369100   -4.8920799   -7.4737347 
   1     7.7034641   -6.4526677   -0.3692451 
   1     4.9600474    4.9495030    8.0611092 
   1    -8.4381523    7.1930597    0.0744111 
   1     4.6971181   -1.5944495   -9.0677237 
   1    -3.7889994    4.6910200   -9.0830877 
   1     1.7271318    9.6344458   -0.4509449 
   1     8.9171596    3.7488512   -1.5346513 
   1    -1.7006326   -9.7714129    1.2192511 
   1    -9.9255637   -3.0785385    1.8323526 
   1    -5.7995250    1.8608347    9.1216547 
   1     2.6788575   -4.6982578    8.7454816 
  13    -7.9003357   10.9068625    5.2888976 
  13    -7.8755973   16.7072905    5.3661809 
  13    -6.2190818   12.9035534    9.6283463 
  13    -4.7382654    7.0248697    8.6162817 
  13    -0.3634455   14.0321355    8.3971931 
  13    -2.0493078   15.8277153    2.9053142 
  13     0.5929143    8.3887688    6.6447394 
  13     3.3521524   12.9495077    4.0243780 
   1     6.1388571   13.1557424    2.9926106 
   1     2.7973538   14.0353755    6.8316784 
   1     2.3421877   10.0315880    4.1343530 
   1     1.2161122   14.4160928    2.3505428 
   1    -3.2984748   13.3460845    1.8072431 
   1    -1.2968928   18.3866423    1.5917948 
   1    -5.0987964   17.1206411    4.1135810 
   1    -9.7058665   19.0320207    5.0505737 
   1    -1.2673831   15.9992581    6.0345738 
   1    -7.3397486   15.8756994    8.2907606 
   1    -3.3430343   14.2659341    9.6284195 
   1    -7.4170249   13.5161195   12.2874651 
   1    -4.9947283    9.9701705   10.0047622 
   1    -1.6704087    7.3084080    8.9067755 
   1    -6.1234190    5.4363271   10.7369860 
   1     2.5621455    9.1812513    8.8008121 
   1     1.0881136   14.9176798   10.8272304 
   1    -1.0353373   11.3783576    6.9725971 
   1    -9.3704077    9.7288245    2.9968045 
   1    -8.9704546   14.0499322    4.2141998 
   1    -6.5117955    8.0041018    6.2675447 
   1    -9.0727945   11.4025024    8.1490738 
   1    -1.5828333    7.7836134    4.3868282 
   1    -5.2804732   12.3263499    6.1481640 
