#
# Number of atoms
#
 92
#
# The current total energy in Eh
#
  -4952.495901841196
#
# The current gradient in Eh/bohr
#
       0.000034983977
      -0.000017483041
      -0.000096661518
       0.000034254214
      -0.000010093626
       0.000047963226
      -0.000017304072
       0.000040129570
       0.000084655285
      -0.000009069658
       0.000000750227
       0.000022012187
      -0.000088905204
       0.000021045312
       0.000035182201
       0.000081859948
      -0.000098917060
      -0.000053383762
      -0.000022028987
       0.000025117031
       0.000060494684
       0.000029292021
       0.000036003094
      -0.000033494983
      -0.000060299989
       0.000028970521
       0.000058394943
       0.000038254115
      -0.000001230833
      -0.000056329516
      -0.000027941296
      -0.000040727442
       0.000008941687
       0.000030463935
       0.000025602006
       0.000037931977
      -0.000016237059
       0.000062679948
      -0.000002585101
      -0.000010216258
      -0.000020553607
      -0.000051770388
       0.000140715120
       0.000032822778
       0.000058703482
       0.000008993250
      -0.000025686041
       0.000057592859
       0.000023985023
      -0.000008591348
      -0.000008741366
       0.000013036295
      -0.000006354686
      -0.000013231460
      -0.000068762587
       0.000041584822
      -0.000024514274
       0.000006535350
      -0.000005861293
      -0.000009184754
       0.000011245164
      -0.000030674255
       0.000028429457
      -0.000015668375
      -0.000042076115
       0.000001421858
      -0.000023694868
      -0.000049597424
      -0.000009476426
      -0.000023551824
       0.000021830651
      -0.000039998739
       0.000006591915
       0.000015092262
      -0.000025879996
      -0.000035566672
       0.000045208909
      -0.000057174744
      -0.000013904189
       0.000052726201
       0.000022276561
      -0.000000427463
      -0.000000830106
       0.000012156259
       0.000047392508
      -0.000007165477
      -0.000017526484
       0.000042322346
       0.000061190833
       0.000028109330
       0.000030432106
       0.000011332695
       0.000041476373
       0.000003450459
       0.000010423395
      -0.000023642856
      -0.000023973223
       0.000066102772
       0.000009129980
      -0.000013019699
       0.000035325175
       0.000014213704
      -0.000015475167
      -0.000001991322
      -0.000009574049
      -0.000030936879
      -0.000003741534
      -0.000053767867
      -0.000010824343
      -0.000085643674
       0.000021384248
       0.000044840943
      -0.000012914126
       0.000051537234
      -0.000053169580
      -0.000006876747
      -0.000041549586
      -0.000015719390
      -0.000048337428
      -0.000039658918
      -0.000009553778
      -0.000011060530
      -0.000002834717
       0.000028447680
      -0.000038952795
      -0.000040293701
       0.000045292685
      -0.000013897105
       0.000031973199
      -0.000019639578
      -0.000024023567
      -0.000006979883
       0.000007544443
       0.000028017925
      -0.000023947653
       0.000018574335
      -0.000010589706
       0.000036022662
       0.000002953887
      -0.000045629280
       0.000004055154
      -0.000022063748
      -0.000020877482
       0.000027173531
      -0.000009222099
       0.000013760690
       0.000002410823
      -0.000008131001
      -0.000003470240
       0.000005846817
       0.000004935654
      -0.000000899056
       0.000003092678
      -0.000012634937
      -0.000006684959
      -0.000008938395
      -0.000007571955
       0.000002130989
      -0.000005402574
       0.000009430642
       0.000001021628
      -0.000006968671
      -0.000002007649
       0.000006298797
       0.000006365290
       0.000000391788
      -0.000001688662
      -0.000002399850
      -0.000007803107
       0.000007604987
      -0.000003504559
       0.000001324178
      -0.000015604815
      -0.000001907845
       0.000006315485
       0.000007887563
       0.000002110459
      -0.000003787379
       0.000001013838
       0.000005594627
      -0.000019767486
       0.000115156866
       0.000059053892
      -0.000033059160
       0.000023825508
       0.000077411915
       0.000175887678
       0.000110815426
       0.000090103242
      -0.000018270854
      -0.000087414142
      -0.000091042893
       0.000159613006
       0.000058407217
      -0.000020856263
       0.000068136222
      -0.000058028704
      -0.000018906285
      -0.000067478042
       0.000150690209
       0.000031006467
      -0.000037131519
       0.000076665940
       0.000077643184
      -0.000013409245
      -0.000004266550
      -0.000035069388
       0.000073269231
      -0.000028584555
       0.000088360082
      -0.000000548678
      -0.000084876652
      -0.000052125577
      -0.000045935247
      -0.000043695864
      -0.000062928508
       0.000026624343
       0.000034950360
       0.000014258081
      -0.000020265753
      -0.000005318739
      -0.000004006071
       0.000018119070
       0.000054788815
      -0.000023726238
       0.000012796674
       0.000002953102
      -0.000035957682
      -0.000077036844
       0.000032045031
       0.000034707639
       0.000013827622
      -0.000030071991
      -0.000024762161
      -0.000066119037
      -0.000059205947
      -0.000026989234
      -0.000033337603
       0.000005782117
      -0.000004605942
      -0.000010892865
       0.000017193557
       0.000070779823
       0.000030434474
      -0.000020055353
      -0.000001093431
       0.000004181521
       0.000006117788
      -0.000003972150
      -0.000005407291
      -0.000039885190
       0.000013621004
      -0.000013856212
      -0.000007773663
       0.000001430777
      -0.000116475547
      -0.000062031390
      -0.000024643289
       0.000027187861
      -0.000015852213
      -0.000034522838
      -0.000001010385
      -0.000058189314
      -0.000046091789
      -0.000020463661
      -0.000003494188
       0.000022469414
      -0.000004905095
      -0.000045034061
      -0.000064084946
       0.000016821951
       0.000007744871
      -0.000020960821
      -0.000076276662
      -0.000026307445
      -0.000039827984
#
# The atomic numbers and current coordinates in Bohr
#
  40    -1.5177447    4.1123786    2.3975709 
  40     0.8675441   -3.7682578   -2.6887570 
  40     3.7451210   -0.5720309    2.2889914 
  40    -4.5900534    0.8767714   -2.4515341 
  40     1.5885628    2.6212152   -3.7247776 
  40    -2.4452280   -2.3817596    3.3974903 
   8    -3.8063283    0.7260051    1.4049892 
   8     3.0937082   -0.3478937   -1.6058823 
   8     0.6627581   -3.1879977    1.2134581 
   8    -1.5607896    3.6433121   -1.5186752 
   8    -1.1034895   -0.5280037   -3.6903144 
   8     0.3606607    0.9175793    3.5734832 
   8    -3.9003219    3.7131725    6.4606183 
   8    -5.1130414    6.0957888    1.6075630 
   8     1.9892701    5.1681978    5.7826853 
   8     1.5888084    6.5010703    0.8551495 
   8    -1.0074310   -7.2224393   -1.1742489 
   8    -2.0897612   -5.0930775   -5.4908023 
   8     4.4359986   -5.8531515   -1.8819838 
   8     3.0294284   -3.4561098   -6.2807345 
   8     3.8362548   -3.0380644    5.7233685 
   8     4.9454761    2.0822152    5.5375718 
   8     6.3692860   -3.6880028    1.2660459 
   8     6.6908834    2.0664772    0.9120054 
   8    -8.0607703   -0.9672221   -0.7303782 
   8    -7.0228081    4.1984057   -1.7254875 
   8    -5.5076318   -2.6363432   -4.6096665 
   8    -4.7331845    2.7850366   -6.1784139 
   8    -0.6857131    3.8934132   -7.0400619 
   8     1.8706522    6.9324199   -3.3790935 
   8     3.3753608    0.7457081   -7.0242583 
   8     5.6259074    3.7694670   -2.8833028 
   8    -6.3666891   -3.4532880    2.3374830 
   8    -4.2804246   -0.5550038    6.6681940 
   8    -2.6383687   -6.6180632    2.7588860 
   8    -0.2729656   -3.7505287    6.7075093 
   6    -4.7008996    1.6424719    7.4610329 
   6    -6.8327439    5.9123998   -0.0653744 
   6     4.0109227    4.0145842    6.5283950 
   6     1.7977816    7.8178929   -1.1777908 
   6    -1.8356954   -7.9722490    0.9608649 
   6    -4.2952411   -4.2706556   -5.9024845 
   6     6.2364923   -5.4565961   -0.3493366 
   6     3.7536830   -1.5618090   -7.5586471 
   6     2.0898901   -3.9225986    7.1009672 
   6     7.1852897    3.1444223   -1.1833751 
   6    -8.2027159   -2.4572692    1.1279632 
   6    -3.0225912    3.7703490   -7.5469693 
   1    -5.3232035   -5.0951000   -7.5798447 
   1     7.8808075   -6.8085987   -0.4274637 
   1     5.0024408    4.8610935    8.2147779 
   1    -8.3299900    7.4230078   -0.0479450 
   1     4.8382799   -1.9656105   -9.3465234 
   1    -3.6497938    4.6146575   -9.3992796 
   1     1.9420891    9.9334953   -0.9495070 
   1     9.2322961    3.6262063   -1.5343985 
   1    -1.8848249  -10.0834920    1.2586479 
   1   -10.1592206   -2.9981299    1.7810382 
   1    -5.8762917    1.8408415    9.2212356 
   1     2.6878273   -4.9689570    8.8577752 
  13    -8.0793306   11.0749968    5.4899428 
  13    -8.2155542   16.9762442    5.6354708 
  13    -6.3277133   13.0914832    9.9071782 
  13    -4.7370557    7.0998428    8.8032415 
  13    -0.3855690   14.3050200    8.5032996 
  13    -2.3379825   16.0781089    2.9304333 
  13     0.6670213    8.4853941    6.7347607 
  13     3.2586060   13.1763065    3.9035802 
   1     6.0498807   13.4381690    2.6927953 
   1     2.8391627   14.3282309    6.8026708 
   1     2.3546520   10.1511756    4.1440672 
   1     0.9552131   14.5792059    2.2496737 
   1    -3.6798711   13.5466510    1.8533249 
   1    -1.5721547   18.6909745    1.5547915 
   1    -5.3990827   17.4553899    4.2832101 
   1   -10.1194930   19.3413875    5.3335756 
   1    -1.3913360   16.3325249    6.1185263 
   1    -7.6276686   16.1525781    8.6410629 
   1    -3.4049673   14.5822722    9.9055244 
   1    -7.5590652   13.6258184   12.6537606 
   1    -4.9650962   10.1069092   10.2699251 
   1    -1.5707677    7.2588466    9.1198540 
   1    -6.2195205    5.4539631   10.9169773 
   1     2.7146392    9.2274774    8.9279592 
   1     1.1914096   15.1824623   10.9548646 
   1    -1.0862372   11.5250541    7.1429175 
   1    -9.5191123    9.8374667    3.1127909 
   1    -9.3390430   14.2531241    4.4352865 
   1    -6.4422714    8.1238353    6.3211915 
   1    -9.2955860   11.4274961    8.4395579 
   1    -1.5920248    7.7405141    4.4981041 
   1    -5.4269286   12.6241837    6.3458461 
