     0.00   0.00491921768008 
     2.05   0.01358827185610 
     4.11   0.03383214264150 
     6.16   0.07592623578815 
     8.21   0.15358589235825 
    10.26   0.28003213494497 
    12.32   0.46021578179699 
    14.37   0.68177896487630 
    16.42   0.91043206649577 
    18.48   1.09609706295915 
    20.53   1.19022070182460 
    22.58   1.16710246437569 
    24.63   1.03683926332674 
    26.69   0.84222296788190 
    28.74   0.64112115521725 
    30.79   0.48513418004944 
    32.84   0.40538879160288 
    34.90   0.41009093264965 
    36.95   0.49110252068292 
    39.00   0.63303461937868 
    41.06   0.81873787176315 
    43.11   1.02838786864259 
    45.16   1.23439558715934 
    47.21   1.39880163820189 
    49.27   1.47971227388176 
    51.32   1.44679068697951 
    53.37   1.29722838757478 
    55.43   1.06043459053155 
    57.48   0.78719790140988 
    59.53   0.52940474949670 
    61.58   0.32248372150888 
    63.64   0.17910807252768 
    65.69   0.09407986563577 
    67.74   0.05424606938180 
    69.79   0.04686683961971 
    71.85   0.06317355173546 
    73.90   0.09744959708373 
    75.95   0.14384173616355 
    78.01   0.19398966151200 
    80.06   0.23666020113164 
    82.11   0.26173985668119 
    84.16   0.26493424185195 
    86.22   0.25276825343213 
    88.27   0.24440740603184 
    90.32   0.27000734510857 
    92.38   0.36519045514607 
    94.43   0.56096752172160 
    96.48   0.86902116747764 
    98.53   1.26611441917050 
   100.59   1.68690185044789 
   102.64   2.03544426406902 
   104.69   2.21712533273568 
   106.74   2.17796649022990 
   108.80   1.92893982297964 
   110.85   1.54068337268524 
   112.90   1.11137673962761 
   114.96   0.72868104774046 
   117.01   0.44589266411668 
   119.06   0.28065577900839 
   121.11   0.22898819236741 
   123.17   0.28132339934013 
   125.22   0.43053892173190 
   127.27   0.66951384068350 
   129.33   0.98202055035846 
   131.38   1.33368472725953 
   133.43   1.66968368317006 
   135.48   1.92331204060111 
   137.54   2.03482574692921 
   139.59   1.97299515611879 
   141.64   1.74936689714155 
   143.70   1.41560721864473 
   145.75   1.04439701881218 
   147.80   0.70346886934879 
   149.85   0.43584428003144 
   151.91   0.25447772837866 
   153.96   0.14863647619991 
   156.01   0.09808413944391 
   158.06   0.08539043324756 
   160.12   0.10567172133796 
   162.17   0.17321210083663 
   164.22   0.32490180091725 
   166.28   0.61640754997294 
   168.33   1.10583893746463 
   170.38   1.82180989858504 
   172.43   2.72406266622607 
   174.49   3.68082562944855 
   176.54   4.48727728392829 
   178.59   4.93252807367572 
   180.65   4.88800664759942 
   182.70   4.36676968598183 
   184.75   3.51817861230874 
   186.80   2.56038774674624 
   188.86   1.69442325500509 
   190.91   1.04707463782722 
   192.96   0.66252445085615 
   195.01   0.52843253963524 
   197.07   0.60675695859865 
   199.12   0.84823633354829 
   201.17   1.18955169662962 
   203.23   1.54798735642518 
   205.28   1.82910862858841 
   207.33   1.95284885460307 
   209.38   1.88438062281461 
   211.44   1.65184816474578 
   213.49   1.33785497977668 
   215.54   1.05241255198220 
   217.60   0.90060065461762 
   219.65   0.95814873995991 
   221.70   1.25446723695878 
   223.75   1.76079639230272 
   225.81   2.38456192168329 
   227.86   2.98355061199184 
   229.91   3.40867172611168 
   231.96   3.56475677898086 
   234.02   3.45746241952150 
   236.07   3.19318660784097 
   238.12   2.92464889317954 
   240.18   2.77052562702028 
   242.23   2.75550705561420 
   244.28   2.80563535991886 
   246.33   2.79877284329951 
   248.39   2.63567467374349 
   250.44   2.29326947904285 
   252.49   1.83105678161158 
   254.55   1.35980143550580 
   256.60   0.99917843224862 
   258.65   0.84981413542979 
   260.70   0.98435174571721 
   262.76   1.44312464165115 
   264.81   2.21610150964711 
   266.86   3.21524837288670 
   268.91   4.25955825740205 
   270.97   5.10390983465190 
   273.02   5.51755802519490 
   275.07   5.37805663545386 
   277.13   4.72697600406036 
   279.18   3.75052261841474 
   281.23   2.69813675912569 
   283.28   1.79074042422199 
   285.34   1.16676130750035 
   287.39   0.88030648937226 
   289.44   0.92850781705265 
   291.50   1.27401322569752 
   293.55   1.84538478278032 
   295.60   2.52546792245986 
   297.65   3.15373806853784 
   299.71   3.56078568560006 
   301.76   3.62657259807110 
   303.81   3.33032372074369 
   305.87   2.75803221301408 
   307.92   2.06337086455843 
   309.97   1.40608874582947 
   312.02   0.90589819215948 
   314.08   0.63438608670726 
   316.13   0.63915332858666 
   318.18   0.97370134557070 
   320.23   1.70287911809799 
   322.29   2.86721124712023 
   324.34   4.41612283770690 
   326.39   6.15014560938079 
   328.45   7.72528734746134 
   330.50   8.74776764417987 
   332.55   8.92888710168484 
   334.60   8.21475309129012 
   336.66   6.81222191735856 
   338.71   5.09190333039228 
   340.76   3.43058830468777 
   342.82   2.08351653536486 
   344.87   1.14114588626422 
   346.92   0.56552320768020 
   348.97   0.25943076717824 
   351.03   0.12676439550580 
   353.08   0.10475587712267 
   355.13   0.17183731300430 
   357.18   0.34080068794609 
   359.24   0.64275676186334 
   361.29   1.10254142551795 
   363.34   1.71026015251786 
   365.40   2.39625308940749 
   367.45   3.03349387677886 
   369.50   3.47077524190965 
   371.55   3.59104517320269 
   373.61   3.36365108500685 
   375.66   2.86103541802417 
   377.71   2.23080475736932 
   379.77   1.64268931424711 
   381.82   1.23837238441764 
   383.87   1.10670567736672 
   385.92   1.28159388705467 
   387.98   1.75079121849094 
   390.03   2.47274972587125 
   392.08   3.40482911421992 
   394.13   4.54084916905527 
   396.19   5.93364018679859 
   398.24   7.66545136118853 
   400.29   9.74956839891026 
   402.35  12.01603685591700 
   404.40  14.06986558771368 
   406.45  15.40140531213254 
   408.50  15.62292046185986 
   410.56  14.70194229809757 
   412.61  13.03830031243458 
   414.66  11.31820160792028 
   416.72  10.21269014482893 
   418.77  10.07517717298249 
   420.82  10.78750433887659 
   422.87  11.82517883089111 
   424.93  12.50661139728697 
   426.98  12.30379909595611 
   429.03  11.05936161837466 
   431.09   9.01130933515353 
   433.14   6.63386221123980 
   435.19   4.40620758158844 
   437.24   2.63923619044947 
   439.30   1.42610915413469 
   441.35   0.69792887334017 
   443.40   0.31742414945431 
   445.45   0.15544716061068 
   447.51   0.12727767329245 
   449.56   0.19647961795681 
   451.61   0.36049498481304 
   453.67   0.62806546160090 
   455.72   0.99402982645334 
   457.77   1.42040330556306 
   459.82   1.82957773018683 
   461.88   2.12435227879640 
   463.93   2.22412839496464 
   465.98   2.10146688574558 
   468.04   1.79697058803535 
   470.09   1.40346518895709 
   472.14   1.03005767019712 
   474.19   0.76671133967016 
   476.25   0.66393870677778 
   478.30   0.72828018845702 
   480.35   0.92610070425935 
   482.40   1.19112141106400 
   484.46   1.43802220823380 
   486.51   1.58509221509091 
   488.56   1.58106069557875 
   490.62   1.42316916599910 
   492.67   1.15501739544220 
   494.72   0.84597413568027 
   496.77   0.56049467558199 
   498.83   0.34158551049344 
   500.88   0.20780067262282 
   502.93   0.16624381999525 
   504.99   0.23030178631056 
   507.04   0.43160564585840 
   509.09   0.81722546879842 
   511.14   1.42757945679700 
   513.20   2.25764554821146 
   515.25   3.22258606930321 
   517.30   4.15267528053130 
   519.35   4.83991956710656 
   521.41   5.12531124798262 
   523.46   4.98358933771818 
   525.51   4.55084422953903 
   527.57   4.07000184426988 
   529.62   3.77777922074104 
   531.67   3.79224526665746 
   533.72   4.05974778152706 
   535.78   4.38722638702789 
   537.83   4.54100036199411 
   539.88   4.35916002682305 
   541.94   3.81949961959634 
   543.99   3.03276502252369 
   546.04   2.17546431817282 
   548.09   1.40921076040659 
   550.15   0.82618068550192 
   552.20   0.44775262949893 
   554.25   0.25097326733495 
   556.30   0.21030446352524 
   558.36   0.32870465711632 
   560.41   0.65085971071493 
   562.46   1.25203949292973 
   564.52   2.19884911060234 
   566.57   3.48793640955388 
   568.62   4.98934650542133 
   570.67   6.43434488145397 
   572.73   7.48318068952225 
   574.78   7.85600362212220 
   576.83   7.46473905804071 
   578.89   6.46790492481693 
   580.94   5.21318291284390 
   582.99   4.10002750312204 
   585.04   3.43408238889617 
   587.10   3.33390610616332 
   589.15   3.71218618028651 
   591.20   4.32300858127376 
   593.26   4.85659226320777 
   595.31   5.05240453867961 
   597.36   4.79212503626536 
   599.41   4.13286270928455 
   601.47   3.26661070739825 
   603.52   2.43049999011652 
   605.57   1.81721997190504 
   607.62   1.51799680767387 
   609.68   1.51581301476675 
   611.73   1.70895440599641 
   613.78   1.95314815448161 
   615.84   2.10990892991325 
   617.89   2.08987685705159 
   619.94   1.87688299055393 
   621.99   1.52237198712681 
   624.05   1.11357480186750 
   626.10   0.73458213005764 
   628.15   0.43677564454714 
   630.21   0.23408498492072 
   632.26   0.11307999780012 
   634.31   0.04923740040931 
   636.36   0.01932420025460 
   638.42   0.00683604689597 
   640.47   0.00217974468475 
   642.52   0.00062647437462 
   644.57   0.00016229236356 
   646.63   0.00000000000000 
   648.68   0.00000000000000 
   650.73   0.00000000000000 
   652.79   0.00000000000000 
   654.84   0.00000000000000 
   656.89   0.00000000000000 
   658.94   0.00000000000000 
   661.00   0.00000000000000 
   663.05   0.00049026276172 
   665.10   0.00177969975869 
   667.16   0.00582319945541 
   669.21   0.01717408784365 
   671.26   0.04565441519447 
   673.31   0.10942774956451 
   675.37   0.23639431904518 
   677.42   0.46038929796357 
   679.47   0.80845242901565 
   681.52   1.28036823805137 
   683.58   1.82961715794936 
   685.63   2.36085968099504 
   687.68   2.75458853104401 
   689.74   2.91393224518673 
   691.79   2.80678633400175 
   693.84   2.48333409193694 
   695.89   2.05479895213121 
   697.95   1.65836167873716 
   700.00   1.42839673292796 
   702.05   1.50603520994311 
   704.11   2.05489756484000 
   706.16   3.26409922133635 
   708.21   5.30227041357372 
   710.26   8.22911407884855 
   712.32  11.90676199952184 
   714.37  15.97097731929864 
   716.42  19.89475215619558 
   718.48  23.12039768646452 
   720.53  25.19241781334906 
   722.58  25.84196345298404 
   724.63  25.01378938637800 
   726.69  22.86511488754627 
   728.74  19.75345221496420 
   730.79  16.19907217136947 
   732.84  12.79817756692212 
   734.90  10.08727416280542 
   736.95   8.39603555563931 
   739.00   7.74630051135043 
   741.06   7.84815582607763 
   743.11   8.21119955048342 
   745.16   8.33387010925127 
   747.21   7.89709586924959 
   749.27   6.86766413500364 
   751.32   5.47143897890693 
   753.37   4.07194713496404 
   755.43   3.03166204881389 
   757.48   2.61691336835700 
   759.53   2.96849807934577 
   761.58   4.09153435547103 
   763.64   5.83726124674173 
   765.69   7.88943613709100 
   767.74   9.79613224501655 
   769.79  11.07948766557496 
   771.85  11.39651992028695 
   773.90  10.67178746466979 
   775.95   9.12331384691160 
   778.01   7.16386703816434 
   780.06   5.23115723741907 
   782.11   3.63873030327161 
   784.16   2.50882686522930 
   786.22   1.79689283555280 
   788.27   1.37010469180761 
   790.32   1.08965000145463 
   792.38   0.86181491356753 
   794.43   0.64902906243824 
   796.48   0.45283594545079 
   798.53   0.28852236160404 
   800.59   0.16686069777962 
   802.64   0.08791156475907 
   804.69   0.04469665702072 
   806.74   0.02940101822705 
   808.80   0.04154713432210 
   810.85   0.09387068150863 
   812.90   0.21746754803440 
   814.96   0.46268705590023 
   817.01   0.88953313701447 
   819.06   1.54196214027625 
   821.11   2.40939126993201 
   823.17   3.39342335222257 
   825.22   4.30790230627010 
   827.27   4.92936228132089 
   829.33   5.08408402206671 
   831.38   4.72641433663744 
   833.43   3.96048116858928 
   835.48   2.99130849460252 
   837.54   2.03643965756479 
   839.59   1.24962290632711 
   841.64   0.69116780309880 
   843.70   0.34457606776798 
   845.75   0.15484023156861 
   847.80   0.06287790918303 
   849.85   0.02350892208410 
   851.91   0.00962374038031 
   853.96   0.00866013190094 
   856.01   0.01840984258489 
   858.06   0.04450898214237 
   860.12   0.10024696515815 
   862.17   0.20374952454472 
   864.22   0.37329133711333 
   866.28   0.61724698479514 
   868.33   0.92239879520143 
   870.38   1.24916096237101 
   872.43   1.54143058010904 
   874.49   1.75131619147587 
   876.54   1.86637870644322 
   878.59   1.91993839536215 
   880.65   1.97233039914783 
   882.70   2.07063210469348 
   884.75   2.21223043666792 
   886.80   2.33834650577473 
   888.86   2.36442460726867 
   890.91   2.22861700825259 
   892.96   1.92713650616109 
   895.01   1.51552467502327 
   897.07   1.07902380433925 
   899.12   0.69396579012895 
   901.17   0.40271882725097 
   903.23   0.21075930270533 
   905.28   0.09942148797793 
   907.33   0.04229325072496 
   909.38   0.01621656866345 
   911.44   0.00560459136772 
   913.49   0.00174592680146 
   915.54   0.00049023599998 
   917.60   0.00012407419275 
   919.65   0.00000000000000 
   921.70   0.00000000000000 
   923.75   0.00000000000000 
   925.81   0.00000000000000 
   927.86   0.00000000000000 
   929.91   0.00000000000000 
   931.96   0.00000000000000 
   934.02   0.00000000000000 
   936.07   0.00000000000000 
   938.12   0.00000000000000 
   940.18   0.00000000000000 
   942.23   0.00000000000000 
   944.28   0.00057787435105 
   946.33   0.00224242014398 
   948.39   0.00784327862972 
   950.44   0.02472722557762 
   952.49   0.07026680844000 
   954.55   0.17997913298653 
   956.60   0.41551927317896 
   958.65   0.86468371518144 
   960.70   1.62188656791868 
   962.76   2.74208406077100 
   964.81   4.17867063800275 
   966.86   5.73974513552180 
   968.91   7.10631027681579 
   970.97   7.93035836190298 
   973.02   7.97698086053575 
   975.07   7.23238234104009 
   977.13   5.91100129928591 
   979.18   4.35584356992777 
   981.23   2.89829704995394 
   983.28   1.75461012223440 
   985.34   1.00486683182445 
   987.39   0.64139619824045 
   989.44   0.64158074985219 
   991.50   1.01992451608384 
   993.55   1.83212672859418 
   995.60   3.12558691356846 
   997.65   4.85533960345585 
   999.71   6.81133444365554 
  1001.76   8.61564611578798 
  1003.81   9.82389597865636 
  1005.87  10.09663713378038 
  1007.92   9.35334236474017 
  1009.97   7.81005341829925 
  1012.02   5.87811755689702 
  1014.08   3.98767375752415 
  1016.13   2.43836133555150 
  1018.18   1.34392055410425 
  1020.23   0.66764595027238 
  1022.29   0.29896195989495 
  1024.34   0.12066539386254 
  1026.39   0.04389819139213 
  1028.45   0.01439486547105 
  1030.50   0.00425466806257 
  1032.55   0.00113349822943 
  1034.60   0.00000000000000 
  1036.66   0.00000000000000 
  1038.71   0.00000000000000 
  1040.76   0.00000000000000 
  1042.82   0.00000000000000 
  1044.87   0.00000000000000 
  1046.92   0.00000000000000 
  1048.97   0.00000000000000 
  1051.03   0.00071952969180 
  1053.08   0.00282838115400 
  1055.13   0.01002130406270 
  1057.18   0.03200424852767 
  1059.24   0.09212725239308 
  1061.29   0.23903731042464 
  1063.34   0.55903674968880 
  1065.40   1.17845258367636 
  1067.45   2.23913850097963 
  1069.50   3.83483685118467 
  1071.55   5.91983928856209 
  1073.61   8.23701830739931 
  1075.66  10.33064019427805 
  1077.71  11.67835116641347 
  1079.77  11.89961511838659 
  1081.82  10.92902424132186 
  1083.87   9.06111277978943 
  1085.92   6.80101323468706 
  1087.98   4.70561393927531 
  1090.03   3.24383284476872 
  1092.08   2.82179079344058 
  1094.13   3.92682061530437 
  1096.19   7.27240470866700 
  1098.24  13.77148643822273 
  1100.29  24.19971221540422 
  1102.35  38.56409000543147 
  1104.40  55.46657407210109 
  1106.45  71.94126733029493 
  1108.50  84.15164550031639 
  1110.56  88.83879058419926 
  1112.61  84.79158494077971 
  1114.66  73.48839193449416 
  1116.72  58.45413455883577 
  1118.77  43.75124448552481 
  1120.82  32.49215893327835 
  1122.87  26.11463592986623 
  1124.93  24.55396675594656 
  1126.98  26.89545245823374 
  1129.03  31.94528644603510 
  1131.09  38.41708552782776 
  1133.14  44.83902329064188 
  1135.19  49.54068799897843 
  1137.24  50.98215516969294 
  1139.30  48.33444048539108 
  1141.35  41.93904579189707 
  1143.40  33.21766549381067 
  1145.45  24.12184070133852 
  1147.51  16.36903169776628 
  1149.56  10.92206472633290 
  1151.61   7.88497206288114 
  1153.67   6.72793039627303 
  1155.72   6.63574224213267 
  1157.77   6.81963159312292 
  1159.82   6.72561854760944 
  1161.88   6.11950384350033 
  1163.93   5.06002537083319 
  1165.98   3.78458903668893 
  1168.04   2.56023976673617 
  1170.09   1.58841437170112 
  1172.14   0.97187839553581 
  1174.19   0.77338253913989 
  1176.25   1.10998671047465 
  1178.30   2.24727552611231 
  1180.35   4.63502592932562 
  1182.40   8.81921118501633 
  1184.46  15.18651232511971 
  1186.51  23.58758842100078 
  1188.56  33.02593893086023 
  1190.62  41.68085257446155 
  1192.67  47.41492894586451 
  1194.72  48.61728522860056 
  1196.77  44.93279089142035 
  1198.83  37.43115039817951 
  1200.88  28.10606491570896 
  1202.93  19.02234286090459 
  1204.99  11.60446319224065 
  1207.04   6.38091846819252 
  1209.09   3.16255746528058 
  1211.14   1.41283272478227 
  1213.20   0.56890553062763 
  1215.25   0.20648411938521 
  1217.30   0.06755076098788 
  1219.35   0.01991915568132 
  1221.41   0.00529430181745 
  1223.46   0.00000000000000 
  1225.51   0.00000000000000 
  1227.57   0.00000000000000 
  1229.62   0.00000000000000 
  1231.67   0.00000000000000 
  1233.72   0.00000000000000 
  1235.78   0.00000000000000 
  1237.83   0.00000000000000 
  1239.88   0.00000000000000 
  1241.94   0.00000000000000 
  1243.99   0.00000000000000 
  1246.04   0.00000000000000 
  1248.09   0.00000000000000 
  1250.15   0.00000000000000 
  1252.20   0.00000000000000 
  1254.25   0.00000000000000 
  1256.30   0.00000000000000 
  1258.36   0.00000000000000 
  1260.41   0.00000000000000 
  1262.46   0.00000000000000 
  1264.52   0.00000000000000 
  1266.57   0.00000000000000 
  1268.62   0.00000000000000 
  1270.67   0.00000000000000 
  1272.73   0.00000000000000 
  1274.78   0.00000000000000 
  1276.83   0.00000000000000 
  1278.89   0.00000000000000 
  1280.94   0.00000000000000 
  1282.99   0.00000000000000 
  1285.04   0.00000000000000 
  1287.10   0.00000000000000 
  1289.15   0.00000000000000 
  1291.20   0.00000000000000 
  1293.26   0.00000000000000 
  1295.31   0.00000000000000 
  1297.36   0.00000000000000 
  1299.41   0.00000000000000 
  1301.47   0.00000000000000 
  1303.52   0.00000000000000 
  1305.57   0.00000000000000 
  1307.62   0.00000000000000 
  1309.68   0.00000000000000 
  1311.73   0.00000000000000 
  1313.78   0.00000000000000 
  1315.84   0.00000000000000 
  1317.89   0.00000000000000 
  1319.94   0.00000000000000 
  1321.99   0.00000000000000 
  1324.05   0.00000000000000 
  1326.10   0.00000000000000 
  1328.15   0.00000000000000 
  1330.21   0.00000000000000 
  1332.26   0.00000000000000 
  1334.31   0.00000000000000 
  1336.36   0.00000000000000 
  1338.42   0.00000000000000 
  1340.47   0.00000000000000 
  1342.52   0.00000000000000 
  1344.57   0.00000000000000 
  1346.63   0.00000000000000 
  1348.68   0.00000000000000 
  1350.73   0.00000000000000 
  1352.79   0.00000000000000 
  1354.84   0.00000000000000 
  1356.89   0.00000000000000 
  1358.94   0.00000000000000 
  1361.00   0.00000000000000 
  1363.05   0.00000000000000 
  1365.10   0.00000000000000 
  1367.16   0.00000000000000 
  1369.21   0.00000000000000 
  1371.26   0.00000000000000 
  1373.31   0.00000000000000 
  1375.37   0.00000000000000 
  1377.42   0.00000000000000 
  1379.47   0.00000000000000 
  1381.52   0.00000000000000 
  1383.58   0.00000000000000 
  1385.63   0.00000000000000 
  1387.68   0.00000000000000 
  1389.74   0.00000000000000 
  1391.79   0.00000000000000 
  1393.84   0.00000000000000 
  1395.89   0.00000000000000 
  1397.95   0.00000000000000 
  1400.00   0.00000000000000 
  1402.05   0.00000000000000 
  1404.11   0.00000000000000 
  1406.16   0.00000000000000 
  1408.21   0.00000000000000 
  1410.26   0.00000000000000 
  1412.32   0.00000000000000 
  1414.37   0.00000000000000 
  1416.42   0.00000000000000 
  1418.48   0.00000000000000 
  1420.53   0.00000000000000 
  1422.58   0.00000000000000 
  1424.63   0.00000000000000 
  1426.69   0.00000000000000 
  1428.74   0.00000000000000 
  1430.79   0.00000000000000 
  1432.84   0.00000000000000 
  1434.90   0.00000000000000 
  1436.95   0.00000000000000 
  1439.00   0.00000000000000 
  1441.06   0.00000000000000 
  1443.11   0.00000000000000 
  1445.16   0.00000000000000 
  1447.21   0.00000000000000 
  1449.27   0.00000000000000 
  1451.32   0.00000000000000 
  1453.37   0.00000000000000 
  1455.43   0.00000000000000 
  1457.48   0.00000000000000 
  1459.53   0.00000000000000 
  1461.58   0.00000000000000 
  1463.64   0.00000000000000 
  1465.69   0.00000000000000 
  1467.74   0.00000000000000 
  1469.79   0.00000000000000 
  1471.85   0.00000000000000 
  1473.90   0.00000000000000 
  1475.95   0.00000000000000 
  1478.01   0.00000000000000 
  1480.06   0.00000000000000 
  1482.11   0.00000000000000 
  1484.16   0.00000000000000 
  1486.22   0.00000000000000 
  1488.27   0.00000000000000 
  1490.32   0.00000000000000 
  1492.38   0.00000000000000 
  1494.43   0.00000000000000 
  1496.48   0.00000000000000 
  1498.53   0.00000000000000 
  1500.59   0.00000000000000 
  1502.64   0.00000000000000 
  1504.69   0.00000000000000 
  1506.74   0.00000000000000 
  1508.80   0.00000000000000 
  1510.85   0.00000000000000 
  1512.90   0.00000000000000 
  1514.96   0.00000000000000 
  1517.01   0.00000000000000 
  1519.06   0.00000000000000 
  1521.11   0.00000000000000 
  1523.17   0.00000000000000 
  1525.22   0.00000000000000 
  1527.27   0.00000000000000 
  1529.33   0.00000000000000 
  1531.38   0.00000000000000 
  1533.43   0.00000000000000 
  1535.48   0.00000000000000 
  1537.54   0.00000000000000 
  1539.59   0.00000000000000 
  1541.64   0.00000000000000 
  1543.70   0.00000000000000 
  1545.75   0.00000000000000 
  1547.80   0.00000000000000 
  1549.85   0.00000000000000 
  1551.91   0.00000000000000 
  1553.96   0.00000000000000 
  1556.01   0.00000000000000 
  1558.06   0.00000000000000 
  1560.12   0.00000000000000 
  1562.17   0.00000000000000 
  1564.22   0.00000000000000 
  1566.28   0.00000000000000 
  1568.33   0.00000000000000 
  1570.38   0.00000000000000 
  1572.43   0.00000000000000 
  1574.49   0.00000000000000 
  1576.54   0.00000000000000 
  1578.59   0.00000000000000 
  1580.65   0.00000000000000 
  1582.70   0.00000000000000 
  1584.75   0.00000000000000 
  1586.80   0.00000000000000 
  1588.86   0.00000000000000 
  1590.91   0.00000000000000 
  1592.96   0.00000000000000 
  1595.01   0.00000000000000 
  1597.07   0.00000000000000 
  1599.12   0.00000000000000 
  1601.17   0.00000000000000 
  1603.23   0.00000000000000 
  1605.28   0.00000000000000 
  1607.33   0.00000000000000 
  1609.38   0.00000000000000 
  1611.44   0.00000000000000 
  1613.49   0.00000000000000 
  1615.54   0.00000000000000 
  1617.60   0.00000000000000 
  1619.65   0.00000000000000 
  1621.70   0.00000000000000 
  1623.75   0.00000000000000 
  1625.81   0.00000000000000 
  1627.86   0.00000000000000 
  1629.91   0.00000000000000 
  1631.96   0.00000000000000 
  1634.02   0.00000000000000 
  1636.07   0.00000000000000 
  1638.12   0.00000000000000 
  1640.18   0.00000000000000 
  1642.23   0.00000000000000 
  1644.28   0.00000000000000 
  1646.33   0.00000000000000 
  1648.39   0.00000000000000 
  1650.44   0.00000000000000 
  1652.49   0.00000000000000 
  1654.55   0.00000000000000 
  1656.60   0.00000000000000 
  1658.65   0.00048895533619 
  1660.70   0.00184815545987 
  1662.76   0.00629658251592 
  1664.81   0.01933607796674 
  1666.86   0.05352158521591 
  1668.91   0.13353239467744 
  1670.97   0.30029036429736 
  1673.02   0.60868590643248 
  1675.07   1.11209576148208 
  1677.13   1.83142110603938 
  1679.18   2.71851249941818 
  1681.23   3.63723652389519 
  1683.28   4.38640615977495 
  1685.34   4.76807669001623 
  1687.39   4.67169747309948 
  1689.44   4.12575353505578 
  1691.50   3.28419503087568 
  1693.55   2.35641451281461 
  1695.60   1.52395284133677 
  1697.65   0.88835889887819 
  1699.71   0.46676950637466 
  1701.76   0.22106174064044 
  1703.81   0.09436735541923 
  1705.87   0.03631006893868 
  1707.92   0.01259300722440 
  1709.97   0.00393666919232 
  1712.02   0.00246073096347 
  1714.08   0.00530235629680 
  1716.13   0.01681129890208 
  1718.18   0.05073888854971 
  1720.23   0.13803134484582 
  1722.29   0.33846329577030 
  1724.34   0.74807049992385 
  1726.39   1.49028924877531 
  1728.45   2.67605908488555 
  1730.50   4.33129653139409 
  1732.55   6.31883808733791 
  1734.60   8.30909313286925 
  1736.66   9.84843258414433 
  1738.71  10.52150088132768 
  1740.76  10.13177100430990 
  1742.82   8.79407418492022 
  1744.87   6.88005601925126 
  1746.92   4.85166620633659 
  1748.97   3.08686175259877 
  1751.03   1.77881705137898 
  1753.08   0.95516614007159 
  1755.13   0.56172086760543 
  1757.18   0.57372495432741 
  1759.24   1.09643922960383 
  1761.29   2.43606689006435 
  1763.34   5.10967692585885 
  1765.40   9.72701182862796 
  1767.45  16.71307145068228 
  1769.50  25.90532347115186 
  1771.55  36.24081782935620 
  1773.61  45.81224490245986 
  1775.66  52.44459495443266 
  1777.71  54.59260502882783 
  1779.77  52.05645290637053 
  1781.82  46.04133089673213 
  1783.87  38.50157322748018 
  1785.92  31.19736324988430 
  1787.98  25.05085206794267 
  1790.03  20.10819287186722 
  1792.08  15.96308733808799 
  1794.13  12.24490234469453 
  1796.19   8.85912344873313 
  1798.24   5.93506986515181 
  1800.29   3.63850692620722 
  1802.35   2.02713306586973 
  1804.40   1.02244358668850 
  1806.45   0.46460356140146 
  1808.50   0.19131330681172 
  1810.56   0.07100761279746 
  1812.61   0.02375536656012 
  1814.66   0.00716334140442 
  1816.72   0.00842836053091 
  1818.77   0.02428291876072 
  1820.82   0.08200359549751 
  1822.87   0.24961000701232 
  1824.93   0.68483852029827 
  1826.98   1.69360239033308 
  1829.03   3.77512925366903 
  1831.09   7.58488994019351 
  1833.14  13.73611224626533 
  1835.19  22.42205784876297 
  1837.24  32.99014287032745 
  1839.30  43.75120450222988 
  1841.35  52.29894420586756 
  1843.40  56.34987008778332 
  1845.45  54.72553383361777 
  1847.51  47.90536839117220 
  1849.56  37.79857712626933 
  1851.61  26.88213818698923 
  1853.67  17.23255975081032 
  1855.72   9.95715412462824 
  1857.77   5.18601092648610 
  1859.82   2.43516888272211 
  1861.88   1.03220043150245 
  1863.93   0.39808820075518 
  1865.98   0.14657504335237 
  1868.04   0.06471948552125 
  1870.09   0.05260889834359 
  1872.14   0.06893317418610 
  1874.19   0.09592155178701 
  1876.25   0.12567405188473 
  1878.30   0.14841306322072 
  1880.35   0.15797767953426 
  1882.40   0.15157110675232 
  1884.46   0.13107932707737 
  1886.51   0.10217604180466 
  1888.56   0.07178951774243 
  1890.62   0.04546425587071 
  1892.67   0.02919520747246 
  1894.72   0.02529368294478 
  1896.77   0.04582255341850 
  1898.83   0.12114196540320 
  1900.88   0.32064533197211 
  1902.93   0.77727060075029 
  1904.99   1.70214036730621 
  1907.04   3.36087674963781 
  1909.09   5.98171247075898 
  1911.14   9.59619769032306 
  1913.20  13.87618013242630 
  1915.25  18.08580157122677 
  1917.30  21.24724786707778 
  1919.35  22.49907673958965 
  1921.41  21.47453653513436 
  1923.46  18.47481049191103 
  1925.51  14.32627471783230 
  1927.57  10.01711485056480 
  1929.62   6.32268379926798 
  1931.67   3.63136042803842 
  1933.72   1.98668959710589 
  1935.78   1.27724773865438 
  1937.83   1.44729953049821 
  1939.88   2.64010362599779 
  1941.94   5.22087913248798 
  1943.99   9.64235509306805 
  1946.04  16.14799840657227 
  1948.09  24.39846596848534 
  1950.15  33.23560593862842 
  1952.20  40.80766739490709 
  1954.25  45.16240182556662 
  1956.30  45.05151293585191 
  1958.36  40.50781518448958 
  1960.41  32.82958172489033 
  1962.46  23.98219716538021 
  1964.52  15.79100164360914 
  1966.57   9.37189638297151 
  1968.62   5.01351556851171 
  1970.67   2.41743244975418 
  1972.73   1.08139261785638 
  1974.78   0.53128865571681 
  1976.83   0.56556387994921 
  1978.89   1.37909318348690 
  1980.94   3.81791423578989 
  1982.99   9.79912387247577 
  1985.04  22.73685407123253 
  1987.10  47.60269463927280 
  1989.15  89.90826302750057 
  1991.20 153.25892987730001 
  1993.26 235.92694701177450 
  1995.31 328.32179048577774 
  1997.36 413.67368801120705 
  1999.41 473.18752436538290 
  2001.47 493.71080677275609 
  2003.52 473.90066597029175 
  2005.57 425.07178156498583 
  2007.62 366.29466716799141 
  2009.68 316.79462269979780 
  2011.73 289.71597797498134 
  2013.78 289.42463404453304 
  2015.84 311.91037061940983 
  2017.89 346.77725228480699 
  2019.94 379.99797074703321 
  2021.99 397.48821403978826 
  2024.05 389.26887471891177 
  2026.10 352.85063194826790 
  2028.15 294.00821456334711 
  2030.21 224.22118475382007 
  2032.26 156.09622258830751 
  2034.31  99.03535038352847 
  2036.36  57.24439209359448 
  2038.42  30.32559073141346 
  2040.47  15.33117580109725 
  2042.52   9.00064746134565 
  2044.57   9.28273393991966 
  2046.63  15.89364794733948 
  2048.68  29.97081240086607 
  2050.73  52.94971213193023 
  2052.79  84.86645573990434 
  2054.84 122.73897995251772 
  2056.89 160.03725332581251 
  2058.94 188.08612474682459 
  2061.00 199.24595710280616 
  2063.05 190.24767905714344 
  2065.10 163.73680306693825 
  2067.16 127.01948160099141 
  2069.21  88.81605015746855 
  2071.26  55.97700581555042 
  2073.31  31.79984212036385 
  2075.37  16.28310986163383 
  2077.42   7.51530883583207 
  2079.47   3.12646377813838 
  2081.52   1.17234938700216 
  2083.58   0.39623953914397 
  2085.63   0.12071344631370 
  2087.68   0.03314748464779 
  2089.74   0.00000000000000 
  2091.79   0.00000000000000 
  2093.84   0.00000000000000 
  2095.89   0.00000000000000 
  2097.95   0.00000000000000 
  2100.00   0.00000000000000 
