#
# Number of atoms
#
 84
#
# The current total energy in Eh
#
  -4463.456091393467
#
# The current gradient in Eh/bohr
#
      -0.000000912159
      -0.000000650735
      -0.000003048626
       0.000001312803
      -0.000000213850
       0.000004715489
      -0.000006059861
       0.000002060607
       0.000000673515
       0.000004396307
      -0.000001680895
      -0.000006904294
       0.000001724085
      -0.000000278238
       0.000002906561
      -0.000007329767
       0.000001158358
      -0.000006529302
      -0.000000574715
       0.000001207467
      -0.000004541627
      -0.000002072770
      -0.000000347066
       0.000002833806
      -0.000003799769
       0.000001197584
      -0.000001142831
       0.000001301013
      -0.000002021321
      -0.000003870741
       0.000003738321
       0.000001449561
      -0.000001478188
      -0.000003627594
       0.000003773698
      -0.000001406211
      -0.000004667213
       0.000003295236
      -0.000006048281
       0.000001155600
      -0.000000524183
      -0.000007536529
      -0.000004020084
       0.000001076814
      -0.000002048980
       0.000000607850
       0.000001328282
      -0.000002414720
      -0.000000779688
       0.000000641459
       0.000000334172
       0.000005634176
      -0.000000733043
      -0.000003732591
      -0.000003826197
       0.000000237819
       0.000003848966
       0.000003782742
      -0.000001917132
       0.000004361494
      -0.000008288172
       0.000003099945
       0.000001724949
      -0.000005161937
       0.000003170989
       0.000001123631
      -0.000005676667
       0.000000929282
       0.000005091691
      -0.000003547361
      -0.000000283316
       0.000005985323
       0.000000625247
      -0.000000219171
      -0.000006469720
       0.000003133223
      -0.000000953552
      -0.000007776670
       0.000007405893
      -0.000002865760
      -0.000006618964
       0.000006486152
      -0.000002709327
      -0.000003061494
       0.000006317986
      -0.000002509210
       0.000000514393
       0.000002092040
      -0.000001728610
       0.000001087841
       0.000004561373
      -0.000001794821
       0.000004721006
       0.000000714936
      -0.000000492115
       0.000004778585
      -0.000001528184
       0.000001851256
      -0.000008320237
      -0.000005951549
       0.000002609789
      -0.000007329205
      -0.000003494001
       0.000001347741
      -0.000003088057
      -0.000007114574
       0.000003221700
      -0.000002609819
      -0.000006106368
       0.000003533522
      -0.000008140312
       0.000002460075
       0.000000043712
      -0.000009638231
      -0.000006310401
       0.000002476775
       0.000000443971
       0.000002067955
      -0.000000727467
      -0.000001480211
      -0.000002597217
       0.000001278317
      -0.000003028288
       0.000005386837
      -0.000000454539
      -0.000005281939
      -0.000003156861
       0.000002458589
       0.000007296423
       0.000003467958
      -0.000002092512
       0.000005892035
      -0.000009626541
       0.000003940860
      -0.000000824055
      -0.000001445224
       0.000000489896
       0.000007123017
      -0.000000698929
       0.000001416096
      -0.000009439971
       0.000007907492
      -0.000002828574
      -0.000001728896
       0.000008273858
      -0.000003186180
      -0.000005185561
      -0.000005611172
       0.000001294791
       0.000007623957
      -0.000007611348
       0.000002872157
      -0.000000016302
       0.000003200256
      -0.000000216210
      -0.000011248423
       0.000005163955
      -0.000002813996
       0.000007274651
       0.000009399500
      -0.000003687938
      -0.000001982075
       0.000002757905
      -0.000001296232
      -0.000001016323
      -0.000001947919
       0.000000054578
       0.000008976472
      -0.000003203697
       0.000001585794
      -0.000002372646
      -0.000000321916
       0.000000810092
      -0.000011109743
      -0.000007181272
       0.000003743049
      -0.000009457916
      -0.000011279070
       0.000004582410
      -0.000000516169
       0.000003267967
      -0.000001465592
       0.000009127011
      -0.000003515499
       0.000000219055
       0.000006251120
      -0.000001306035
       0.000000706663
       0.000005439559
      -0.000000671707
       0.000001216757
       0.000001078784
       0.000000846826
      -0.000000563518
       0.000004477116
       0.000004953142
      -0.000002615474
       0.000007770446
       0.000003943396
      -0.000002697647
       0.000005476660
      -0.000004917093
       0.000000209433
       0.000006224251
      -0.000002716743
       0.000001022497
       0.000006371779
       0.000001559169
      -0.000000378924
       0.000005424125
      -0.000003974852
       0.000001103535
       0.000003511954
       0.000001608762
      -0.000001277126
       0.000010002774
       0.000002922900
      -0.000002845365
       0.000004474897
       0.000001505319
      -0.000000739261
       0.000003363602
       0.000005368402
      -0.000002380132
       0.000006428878
      -0.000003259280
       0.000000047993
       0.000009538455
       0.000001325537
      -0.000000425412
      -0.000001751117
       0.000000671420
       0.000000192457
      -0.000003172423
       0.000003132137
      -0.000001260053
      -0.000000266089
       0.000005822446
      -0.000003135472
      -0.000000103103
       0.000007996823
      -0.000004107532
      -0.000000241174
       0.000007014706
      -0.000002079654
       0.000001392467
       0.000004874142
      -0.000002917551
       0.000001274760
       0.000004002657
      -0.000000841959
      -0.000002982483
#
# The atomic numbers and current coordinates in Bohr
#
  40    -0.2618503    4.0467156    1.7330739 
  40     1.5708434   -4.7497574   -0.4306964 
  40     3.6421875   -1.1773757    4.2599340 
  40    -2.5586092    0.2996765   -2.9759578 
  40     4.4172817    1.0963430   -2.3792887 
  40    -2.6997792   -1.4508171    3.7691435 
   8    -2.8352130    1.0851814    0.8560593 
   8     3.8900620   -1.5566322    0.3258697 
   8     0.5877738   -3.5178013    3.0288210 
   8     0.9644679    2.3077246   -1.5329214 
   8    -0.2213265   -2.5796872   -2.7198174 
   8     0.5228766    1.0094307    4.0510263 
   8    -2.8247178    5.0903317    4.7673343 
   8    -3.0867776    6.3154047   -0.2175123 
   8     2.7402133    5.3543830    4.2610198 
   8     1.9638995    7.0827220   -0.1949864 
   8    -1.5432747   -7.1584092    0.2110133 
   8    -3.7305178   -5.6826340   -5.7012039 
   8     3.9133447   -7.7049869    1.8654385 
   8     4.5144292   -5.6465089   -3.0815187 
   8     2.3876864   -2.4232235    7.9334845 
   8     4.6598627    2.2598229    6.3844891 
   8     5.5216406   -4.8944023    4.5295359 
   8     7.6045760   -0.2210176    3.3931362 
   8    -6.1150938   -1.4129048   -1.7379563 
   8    -4.4972388    3.9297960   -3.3682216 
   8    -4.2260026   -1.5708462   -6.2710272 
   8    -0.7502447    1.9071515   -6.4026284 
   8     3.4490329    2.0121102   -6.1659581 
   8     5.2286276    5.0220207   -1.8969295 
   8     5.9825564   -1.9970030   -4.5453316 
   8     8.0575156    1.1881853   -0.5568966 
   8    -6.6552806   -1.5727891    2.4492585 
   8    -4.4353388    1.4463387    6.1214778 
   8    -3.9071255   -5.4258717    3.2223278 
   8    -1.8080637   -2.6130375    7.6299603 
   6    -4.2000683    3.7934094    6.1899825 
   6    -4.5107572    5.8906702   -2.0532877 
   6     3.9222556    4.4815905    6.1242561 
   6     3.9476681    6.9830465   -1.4361235 
   6    -3.1761979   -7.2608651    1.9501245 
   6    -4.2884527   -3.7998269   -7.0263813 
   6     5.2949608   -7.0801057    3.7239079 
   6     5.9228514   -4.3596892   -4.4756887 
   6     0.2278190   -2.9089684    8.7828010 
   6     8.8895682    0.4082392    1.5249016 
   6    -7.4400016   -1.4692541    0.2308094 
   6     1.3676828    2.4353472   -7.2444980 
   1    -4.8710207   -4.1077494   -8.9946292 
   1     6.3628766   -8.5934832    4.6474901 
   1     4.3856325    5.8123032    7.6440566 
   1    -5.8739240    7.3673793   -2.5529954 
   1     7.1998160   -5.3862689   -5.7383796 
   1     1.4676163    3.3425372   -9.1037056 
   1     4.6922117    8.7593151   -2.1994067 
   1    10.9494469    0.3018629    1.7137680 
   1    -4.0234135   -9.1104086    2.3189344 
   1    -9.4959882   -1.4537030   -0.0330347 
   1    -5.2965500    4.8090454    7.6232441 
   1     0.1265014   -3.6503639   10.7129621 
  13     2.5898606  -17.8596439   -4.5157890 
  13     0.1282983  -16.7988459    0.5730457 
   1     2.5456702  -14.9292689    0.2224598 
   1    -2.5320484  -15.4659774    0.0032936 
   1     0.6204124  -18.5370930   -2.0608347 
   1     1.3685897  -19.2544468   -6.8542048 
   1     2.0726022  -14.8018386   -4.6648137 
   1     0.3419408  -18.5986136    2.9394519 
  13     3.1934452  -11.6561961    1.2290428 
   1     2.8976704  -10.9155364   -1.7890190 
   1     0.7194720  -11.6231275    2.9482225 
   1     5.3715678  -18.3362526   -3.5361926 
  13     1.4887160  -11.5508894   -4.9137743 
   1    -0.9213367  -12.2292609   -2.6930071 
   1     4.0186897  -10.7928909   -6.3429673 
   1     5.9269800  -12.4186445    2.2013521 
  13    -3.9251755  -12.9995071   -2.8174509 
   1    -5.6372105  -11.9087210   -0.6177163 
   1    -4.4961330  -15.3596381   -4.5530130 
  13    -2.4259437   -8.8502901   -6.7224615 
   1    -2.5451366   -8.4834780   -9.6976954 
   1    -0.7370340  -11.8882841   -7.1525483 
   1     0.1283881   -8.4112911   -4.8208746 
   1    -4.4885865  -10.5313791   -5.0775415 
