#
# Number of atoms
#
 84
#
# The current total energy in Eh
#
  -4464.503534395201
#
# The current gradient in Eh/bohr
#
       0.000113966537
      -0.000019931174
       0.000084147269
       0.000053649955
      -0.000061755119
       0.000042603818
       0.000005471407
      -0.000051154703
       0.000068488071
       0.000061518015
      -0.000060447074
      -0.000091505844
      -0.000176579125
      -0.000090121785
       0.000032456123
       0.000156369403
      -0.000015264646
      -0.000035145510
       0.000008065692
       0.000004654140
       0.000008411660
      -0.000077629190
      -0.000006438829
      -0.000076581557
       0.000000332857
      -0.000032268256
      -0.000006380181
      -0.000023981016
      -0.000035374686
       0.000066046963
       0.000009587455
       0.000170823872
       0.000016639707
      -0.000049679645
       0.000073672001
      -0.000058816781
       0.000027300798
       0.000087872821
      -0.000055225173
      -0.000010612300
      -0.000038103611
       0.000029502925
      -0.000034783472
      -0.000009224265
      -0.000061945931
      -0.000041573287
      -0.000057019669
       0.000010654376
      -0.000013326140
       0.000026736199
       0.000023017606
      -0.000052460556
       0.000044927056
      -0.000018968501
       0.000001272626
      -0.000016115616
      -0.000019069726
       0.000038818845
      -0.000006771871
      -0.000030598370
       0.000023271459
      -0.000028350516
      -0.000001584667
       0.000006603364
       0.000008573360
       0.000030200297
       0.000011504653
      -0.000015317861
      -0.000006231722
      -0.000089179898
       0.000044411439
      -0.000001807343
      -0.000008865457
       0.000001680689
      -0.000026512427
       0.000027741756
      -0.000057533198
       0.000028683312
      -0.000110473345
       0.000066460560
       0.000047668108
       0.000041602341
      -0.000020617822
       0.000035030095
       0.000050642266
       0.000014638452
      -0.000011971263
       0.000017020305
      -0.000061140130
      -0.000031190805
      -0.000017777705
       0.000043110199
       0.000071217776
       0.000104723345
       0.000010489087
      -0.000000790184
      -0.000011579532
      -0.000032275705
       0.000012731367
      -0.000021252988
       0.000061058549
      -0.000004490582
      -0.000041571267
       0.000029316695
       0.000036557663
      -0.000020727594
      -0.000010425945
      -0.000030341483
      -0.000042917379
      -0.000104652096
       0.000051303763
      -0.000036518156
       0.000032574490
      -0.000018277245
       0.000016087491
       0.000013989571
       0.000038166980
      -0.000026158682
       0.000133539477
       0.000037612686
       0.000000962691
      -0.000006132941
      -0.000042655050
       0.000118743532
      -0.000054137941
       0.000030595224
       0.000056501974
       0.000041554655
       0.000093725683
       0.000046053453
       0.000073551635
      -0.000077380022
      -0.000038056506
       0.000012691420
      -0.000017771970
      -0.000008645202
      -0.000003409753
      -0.000022990044
      -0.000020010891
       0.000006311603
      -0.000019621910
      -0.000059501753
       0.000012139200
      -0.000026254585
      -0.000019578002
       0.000031326480
      -0.000008277262
      -0.000028957549
      -0.000018649795
      -0.000040344053
      -0.000001265327
      -0.000004476663
       0.000001210501
       0.000008837241
       0.000003261720
       0.000009068225
      -0.000024529385
      -0.000054176286
       0.000012966997
       0.000019955281
      -0.000001248383
       0.000005013650
       0.000023342173
      -0.000031007650
      -0.000010111873
       0.000006418144
      -0.000008303570
      -0.000002648227
      -0.000012185391
       0.000001244352
       0.000002405081
       0.000003113205
      -0.000003593944
       0.000010081640
       0.000019589938
       0.000029057644
      -0.000004677612
       0.000014731043
      -0.000001940357
       0.000000358538
       0.000015571884
       0.000074726682
       0.000091891480
       0.000036488074
       0.000086971000
      -0.000026878435
       0.000079154605
      -0.000004168817
       0.000011238632
       0.000011377922
      -0.000031776665
       0.000028297668
      -0.000038849289
       0.000003041721
      -0.000137100181
       0.000019604607
      -0.000029048073
      -0.000018618631
      -0.000022253723
      -0.000037110970
      -0.000059949320
      -0.000019887563
      -0.000021406471
       0.000042816741
      -0.000056552939
      -0.000048406389
      -0.000069887546
      -0.000026160805
      -0.000060070747
       0.000022506064
      -0.000001565597
       0.000065273696
       0.000033287898
      -0.000006858552
      -0.000010397746
      -0.000012207495
       0.000035101421
       0.000106333104
       0.000045739532
       0.000062054143
      -0.000026534230
      -0.000004141497
       0.000034756386
       0.000003836779
       0.000008687333
       0.000000805563
      -0.000017459494
      -0.000002665151
      -0.000109463720
       0.000033208109
       0.000058042974
       0.000023799856
       0.000047959132
       0.000006882636
       0.000039213344
      -0.000083057218
      -0.000059648191
       0.000061819867
      -0.000041612863
      -0.000018788830
      -0.000005018583
       0.000007469796
       0.000017444650
      -0.000010275868
      -0.000065280915
      -0.000012451826
      -0.000103699378
      -0.000037456076
      -0.000026212600
       0.000007415857
       0.000022681013
       0.000005315851
#
# The atomic numbers and current coordinates in Bohr
#
  40    -0.3786979    4.2359340    2.2727644 
  40     1.5580441   -4.4134463   -1.4828494 
  40     4.0199514   -1.1892434    3.6805517 
  40    -2.8280687    0.9207690   -2.8399725 
  40     3.7255293    1.6194551   -2.8442804 
  40    -2.4917043   -1.7856194    3.7297988 
   8    -2.9413206    1.1028355    1.1003389 
   8     4.0720427   -1.3148151   -0.2726359 
   8     0.7690369   -3.4962183    2.2667157 
   8     0.4117926    3.1750226   -1.4194211 
   8     0.4432667   -1.1626217   -3.2509492 
   8     0.7059053    0.8720778    4.0324694 
   8    -2.9611806    4.7202471    5.5474971 
   8    -3.5072889    6.6189464    0.7369899 
   8     2.6959818    5.3131790    4.9540037 
   8     1.8379646    7.5243564    0.6360166 
   8    -1.7234479   -6.7919073   -0.5507038 
   8    -1.0814524   -5.5175253   -5.4017001 
   8     4.4920386   -6.8847091    0.1652984 
   8     4.3177679   -4.8135053   -4.6798033 
   8     3.0874303   -3.0713506    7.3147145 
   8     4.9512560    1.9640981    6.4393133 
   8     6.1786293   -4.7987379    3.4987715 
   8     7.6757971    0.5945468    2.5670494 
   8    -6.3843309   -1.0396052   -1.8079574 
   8    -5.0247792    4.4885478   -2.6582993 
   8    -3.7236672   -2.1461722   -5.8272975 
   8    -1.8725299    2.8615476   -6.4600406 
   8     2.4001043    3.1953188   -6.5056363 
   8     4.7240594    5.6013628   -1.9083066 
   8     5.5127806   -0.8398769   -5.7283197 
   8     7.8016549    1.7776715   -1.5654307 
   8    -6.5575952   -2.0969301    2.3519208 
   8    -4.3307734    0.7785917    6.5181056 
   8    -3.5839888   -5.8883355    3.1972036 
   8    -1.1908899   -3.2398828    7.4414207 
   6    -4.2285100    3.1492739    6.8476537 
   6    -4.9918830    6.3330374   -1.1194443 
   6     4.0956864    4.1904056    6.5663963 
   6     3.5925117    7.5213186   -0.9840806 
   6    -2.9632782   -7.3769336    1.4480302 
   6    -2.7725505   -4.1826697   -6.5613793 
   6     5.9889919   -6.6822754    2.0318887 
   6     5.5029617   -3.2199009   -6.0228931 
   6     0.9968460   -3.6488278    8.3370583 
   6     8.8044555    1.1626815    0.5160252 
   6    -7.5415574   -1.5581127    0.2460627 
   6     0.2125319    3.5288358   -7.4340842 
   1    -3.4582034   -4.9674075   -8.4233914 
   1     7.2746417   -8.3377438    2.4078480 
   1     4.6547583    5.3322820    8.2792296 
   1    -6.4315311    7.8697916   -1.4435578 
   1     6.6574838   -3.9944525   -7.6354320 
   1     0.1171556    4.5174824   -9.3190459 
   1     4.2628064    9.4248866   -1.6737576 
   1    10.9360883    1.1456649    0.5789516 
   1    -3.5887498   -9.4036040    1.6073041 
   1    -9.6714874   -1.5686737    0.1468690 
   1    -5.3766336    3.9453961    8.4557300 
   1     1.0908653   -4.6136782   10.2329913 
  13     1.9346152  -18.9359028   -3.0169310 
  13    -2.3852991  -16.9576529    0.8474339 
   1    -1.2827231  -14.2217604    2.2123049 
   1    -3.9931210  -16.0191822   -1.6116123 
   1     0.4381952  -18.1671026   -0.1272239 
   1    -0.1859655  -20.3616041   -4.6857255 
   1     2.3460245  -15.9492627   -4.0626997 
   1    -3.5661598  -18.7754501    2.9828271 
  13     1.8433459  -13.1353303    2.7437366 
   1     2.7081595  -12.7337767   -0.2848360 
   1     1.2880853  -10.4659809    4.1414349 
   1     4.5893604  -20.0879367   -2.0513781 
  13     2.5286039  -12.5376260   -3.8361791 
   1    -0.7690431  -12.7785076   -2.8478013 
   1     5.5588132  -12.1874532   -4.0407681 
   1     3.3605108  -15.4577822    4.0261826 
  13    -3.6347210  -12.8313921   -4.3177788 
   1    -5.7953491  -11.4654424   -2.6280267 
   1    -3.8790257  -14.9861928   -6.4610023 
  13     0.1889781   -8.9029346   -6.6575325 
   1     1.1599334   -7.9941358   -9.4069394 
   1     1.3995044  -12.1738952   -6.9127610 
   1     1.6943244   -9.0582822   -3.7704074 
   1    -2.7631094  -10.1556178   -6.3370058 
