Corrected dielectric energy   =     -0.004585898
Total C-PCM charge            =     -0.000000000
C-PCM corrected charges:
     0.000041164
    -0.000343281
    -0.000512330
     0.000223446
    -0.000135693
    -0.000525260
     0.000069543
    -0.001726188
    -0.000000265
    -0.001937455
     0.000281416
    -0.001707736
    -0.000667792
    -0.001273272
    -0.001402743
    -0.000148389
     0.000526391
     0.000123503
    -0.001811205
    -0.000000006
    -0.000000022
    -0.000151804
     0.000631984
     0.000248580
    -0.000722174
    -0.000903306
     0.000086886
    -0.000001384
    -0.001083142
    -0.000000015
    -0.000738447
    -0.000025168
    -0.003024992
    -0.000126707
    -0.001229372
     0.000414082
     0.000260643
    -0.001335540
    -0.000000002
    -0.000000005
    -0.001005275
     0.000032825
    -0.000523198
    -0.000170520
    -0.002345975
    -0.001201230
    -0.000000107
    -0.000954568
    -0.000433735
     0.000288891
    -0.001852963
     0.000190735
    -0.000000305
    -0.001085193
     0.000533022
    -0.001895852
    -0.000150764
     0.000140284
    -0.001032948
    -0.000037903
    -0.000000001
    -0.000776796
    -0.002469786
    -0.001031690
    -0.001436500
    -0.000919003
    -0.001463523
    -0.001077833
    -0.000681205
    -0.000715224
    -0.000805291
    -0.001005139
    -0.000000003
     0.000001804
     0.000141078
     0.000226280
     0.000000179
     0.000509990
    -0.001982633
    -0.000215705
    -0.001883589
    -0.001010812
    -0.000241197
    -0.000007382
    -0.000542398
    -0.000272531
    -0.000630059
    -0.001515784
     0.000763104
     0.000503631
     0.000761567
     0.000553978
    -0.000291095
    -0.000000003
    -0.000000064
    -0.001970985
     0.000552425
    -0.000000001
    -0.002458699
    -0.000745043
    -0.001239143
     0.000033046
    -0.000168678
    -0.000554735
    -0.000461158
    -0.000000679
    -0.001199328
    -0.000007108
    -0.000000038
    -0.001771513
    -0.002468487
    -0.000305789
    -0.000749427
    -0.000000022
     0.000749701
     0.000192168
    -0.002069409
    -0.000474761
     0.000005346
    -0.000000002
    -0.000000003
     0.000279338
    -0.001316414
    -0.001503293
    -0.000781735
    -0.000774282
    -0.001459014
     0.000000590
     0.000584849
    -0.000895176
    -0.000000145
    -0.001870322
    -0.001424589
    -0.001891734
     0.000058315
    -0.000022869
    -0.000000001
     0.000137521
    -0.000000001
    -0.000054187
    -0.000583085
    -0.000956276
    -0.000064389
    -0.002026332
    -0.000699196
    -0.002175989
    -0.000916041
     0.000558032
    -0.000880616
    -0.002436062
    -0.001620727
     0.000473610
    -0.000047386
    -0.000952886
    -0.001182075
    -0.002128227
     0.000570363
    -0.000536712
     0.000448989
    -0.000000018
    -0.000668503
    -0.001788135
    -0.000483299
    -0.001600750
    -0.000774118
     0.000594772
    -0.003117337
    -0.001481127
    -0.001550271
    -0.000000120
    -0.001757822
     0.000415845
    -0.000462624
    -0.000625360
     0.000293892
     0.000002115
    -0.001273872
     0.000007819
    -0.000668480
    -0.002252607
    -0.001660907
    -0.000478999
    -0.001668093
    -0.001275121
    -0.001821816
    -0.001884896
    -0.000852591
    -0.000307366
    -0.001417718
    -0.002094723
    -0.002185014
     0.000393816
    -0.002166297
     0.000074705
    -0.000022730
    -0.000000003
     0.000437158
     0.000372134
     0.000430863
    -0.000689296
     0.000118059
     0.000619719
    -0.000000154
    -0.000000003
    -0.000094393
     0.000223488
    -0.000412995
    -0.000374315
    -0.000287501
     0.000019922
    -0.000540361
    -0.000889720
     0.000235550
     0.000237744
    -0.000279322
    -0.000278785
    -0.000228028
    -0.000124539
    -0.000228094
    -0.002176580
    -0.002159478
     0.000130187
    -0.001335239
    -0.001312157
     0.000210574
    -0.001080992
    -0.001270178
     0.000008592
    -0.002214042
    -0.002225624
     0.000008028
     0.000136888
    -0.000194068
    -0.000145741
     0.000225561
    -0.000635832
    -0.000616252
    -0.000711435
    -0.000579050
    -0.002344255
    -0.002333339
    -0.001789228
    -0.002146338
    -0.001101762
    -0.001051823
    -0.000000045
    -0.002166744
    -0.002175620
    -0.000000081
    -0.000000001
    -0.001782626
    -0.001759808
    -0.000000002
    -0.000111484
    -0.000189184
    -0.002484090
    -0.002486527
    -0.001210595
    -0.001090281
    -0.001568644
    -0.001541403
    -0.000414699
    -0.000596080
    -0.000590233
    -0.000445243
    -0.000739954
    -0.001139620
    -0.001126463
    -0.000718874
    -0.000326120
    -0.000886477
    -0.000892042
    -0.000320242
     0.000624084
     0.000131360
     0.000110589
     0.000630572
     0.000006637
     0.000528646
     0.000516972
     0.000006963
     0.000243038
    -0.000936089
    -0.000919950
     0.000168283
    -0.001658483
    -0.000563085
    -0.000679228
    -0.001545957
     0.000525156
    -0.001594968
    -0.001606960
     0.000534691
     0.000667512
    -0.000385611
    -0.000400520
     0.000716695
    -0.000000000
     0.000199471
     0.000202329
     0.000261763
    -0.000565498
    -0.000526599
     0.000153477
    -0.002034307
    -0.002026836
    -0.003777625
    -0.000006498
    -0.000002364
    -0.003773085
    -0.000000045
     0.000557191
     0.000573873
    -0.000000092
     0.000553348
    -0.001231732
    -0.001280099
     0.000521662
     0.000180641
    -0.001435217
    -0.001436477
     0.000210585
     0.000013348
    -0.000290811
    -0.000297220
     0.000005810
    -0.000271360
    -0.000333414
    -0.000030598
     0.000003422
     0.000052770
     0.000044421
    -0.000595895
    -0.000635975
    -0.001065374
    -0.001189389
    -0.000672844
    -0.000681797
     0.000046994
    -0.001833907
    -0.001827834
     0.000022493
    -0.000000029
    -0.001455086
    -0.001441786
    -0.000000012
    -0.000009994
    -0.000022846
     0.000534164
     0.000602595
    -0.001209188
    -0.001219859
    -0.000000149
    -0.000000012
    -0.000386448
    -0.000458151
    -0.000404663
    -0.000450319
     0.000008978
    -0.001934508
    -0.001959068
     0.000022980
     0.000047812
    -0.001628363
    -0.001649048
     0.000100353
    -0.001316569
    -0.000006044
    -0.000002960
    -0.001246090
     0.000058328
     0.000099346
     0.000868659
    -0.000061928
    -0.000046425
     0.000859223
    -0.001753338
    -0.001738773
    -0.000001884
    -0.000004937
    -0.000000146
    -0.000628971
    -0.000556476
    -0.000000225
    -0.000047644
    -0.000000247
    -0.000000261
     0.000067971
    -0.000000001
    -0.002373367
    -0.002373629
    -0.000000000
     0.000218943
    -0.001044317
    -0.001078164
     0.000137892
    -0.000000007
    -0.000000015
     0.000307344
    -0.001324558
    -0.001347720
     0.000284042
     0.000596511
    -0.000352352
    -0.000273703
     0.000610388
     0.000309258
    -0.000707303
    -0.000766724
     0.000372412
     0.000165870
    -0.001922414
    -0.001929090
     0.000117416
    -0.000420852
    -0.000547970
    -0.000573457
    -0.000378137
    -0.000000001
     0.000252241
     0.000244857
    -0.000000001
     0.000097907
    -0.000778795
    -0.000771466
     0.000056544
    -0.000971339
    -0.000963414
     0.000191338
    -0.000000333
    -0.000290484
    -0.000023214
    -0.000000052
    -0.000233400
    -0.000331650
    -0.000016057
     0.000441274
    -0.000984734
    -0.000000025
    -0.000000002
    -0.000207464
    -0.000000003
    -0.000175061
    -0.000571540
    -0.000001988
    -0.000001880
    -0.000076324
    -0.000359064
    -0.000196035
    -0.000258181
    -0.000000001
    -0.000002811
     0.000314255
    -0.000003364
    -0.000616647
    -0.000344013
    -0.000000145
    -0.000515513
    -0.001413057
     0.000626566
     0.000742781
     0.000731345
    -0.000000060
     0.002015297
     0.001707767
     0.000016504
     0.001204136
     0.000439491
     0.001449735
     0.001390194
     0.001288822
     0.001226851
     0.001523879
     0.001501439
     0.001302685
     0.001517726
     0.001318914
     0.001299760
     0.001110486
     0.000014614
     0.001576241
     0.001245125
    -0.000000517
     0.001276266
     0.000121069
     0.001893582
     0.001525873
    -0.000000070
     0.001268638
    -0.000000069
     0.001064851
     0.000021907
     0.001763142
     0.001412907
     0.000198790
    -0.000000007
     0.001682908
     0.001187084
     0.001296500
    -0.000001126
     0.001868232
    -0.000016627
     0.001447286
     0.001299689
     0.001353026
     0.001695873
     0.001632873
     0.001171819
    -0.000000248
     0.000008295
     0.001467478
     0.001836079
     0.001343576
    -0.000003098
    -0.000008944
     0.001440567
     0.001950143
     0.001327839
    -0.000000011
     0.000117433
     0.001580189
     0.001259212
     0.001580794
     0.000196517
    -0.000000418
    -0.000297432
    -0.000000056
    -0.000027359
    -0.000351614
    -0.000228598
     0.000441269
    -0.000041913
    -0.000000044
    -0.000881061
    -0.000000003
    -0.000196700
    -0.000000001
    -0.000159032
    -0.000002688
    -0.000583856
    -0.000001773
    -0.000061187
    -0.000207070
    -0.000346285
    -0.000000002
    -0.000289127
     0.000303855
    -0.000001752
    -0.000004638
    -0.000328503
    -0.000642188
    -0.000000239
    -0.000509024
    -0.001410734
     0.000571846
     0.000725611
     0.000737231
    -0.000006479
     0.001204146
     0.001859302
     0.001765323
    -0.000006348
     0.001310370
     0.001305403
     0.000485309
     0.001484982
     0.001195557
     0.001323952
    -0.000000002
     0.000108263
     0.001436963
     0.001027771
     0.001196899
     0.001201925
     0.001374470
     0.001247436
     0.001904869
     0.001482468
     0.000804134
    -0.000000000
     0.001232732
     0.001469287
     0.001741403
     0.000535838
     0.001743774
     0.001464467
    -0.000000012
     0.001051129
     0.000055744
     0.000458780
     0.001310256
    -0.000000048
     0.001755751
     0.000044294
     0.000309892
     0.001325830
     0.000492289
     0.001685601
    -0.000000001
     0.001121042
     0.001540386
     0.001543357
     0.001758986
    -0.000000864
     0.001441617
    -0.000007847
     0.001257882
     0.001776868
    -0.000006700
     0.001422110
    -0.000007450
     0.001246452
     0.001776455
     0.001635297
     0.000790628
     0.001657454
    -0.000000020
     0.000006335
     0.000142195
    -0.000000029
    -0.000000049
    -0.000196933
    -0.000420768
    -0.000439444
    -0.000189413
    -0.000501642
    -0.000625825
    -0.000000285
    -0.000000835
    -0.000506679
    -0.000143651
    -0.000116511
    -0.000466913
    -0.000473275
    -0.000022415
    -0.000018235
    -0.000494768
    -0.000031401
    -0.000044591
    -0.000019646
     0.000034067
    -0.000476947
    -0.000531067
    -0.000027653
    -0.000027248
     0.000629564
     0.000745526
     0.000728265
     0.002020314
    -0.000000036
     0.001201180
     0.000026040
     0.001714399
     0.001278716
     0.001412626
     0.001445991
     0.000558013
     0.001533571
     0.001190468
     0.001304697
     0.001501310
     0.001328431
     0.001528004
     0.001114397
     0.001302270
     0.001588793
     0.000011977
     0.001280793
    -0.000000629
     0.001258266
     0.001834824
     0.000084572
     0.001263012
    -0.000000140
     0.001519135
     0.000904966
    -0.000000036
     0.001405966
     0.001756350
     0.000050927
     0.000130793
     0.001287675
     0.001291315
     0.001687346
    -0.000000019
     0.001885444
    -0.000000872
     0.001299568
     0.001474004
    -0.000017044
     0.001711196
     0.001299312
     0.001172826
     0.001630843
     0.001475056
     0.000009206
    -0.000000255
     0.001352223
     0.001835605
    -0.000001968
     0.001430477
    -0.000009846
     0.001954998
     0.001326163
    -0.000000004
     0.001567438
     0.000192301
     0.001171091
     0.001576663
     0.000015416
    -0.000339731
    -0.000516255
    -0.000496879
    -0.000084440
     0.000277014
    -0.000000632
    -0.001748004
     0.000051023
    -0.000662314
    -0.001703243
     0.000315174
    -0.001930773
    -0.001450009
    -0.001304377
     0.000526858
    -0.000065199
    -0.000000006
    -0.001836625
     0.000205330
     0.000715622
    -0.000173219
    -0.000000018
    -0.000857352
    -0.000942731
     0.000262093
    -0.001060337
    -0.000000794
     0.000051958
    -0.002881869
    -0.000020691
    -0.000770283
    -0.000000009
     0.000459476
    -0.001220225
    -0.000089711
    -0.000000013
    -0.001340650
     0.000285811
    -0.000620552
     0.000063328
    -0.000964309
    -0.002359899
    -0.000127500
    -0.000416615
    -0.000858053
    -0.000000163
    -0.001164813
    -0.001861466
     0.000297866
    -0.001328547
     0.000000064
     0.000274506
    -0.000260882
    -0.001920987
     0.000482141
     0.000030507
    -0.001004251
     0.000101885
    -0.001071738
    -0.002088563
    -0.000789141
    -0.000000001
    -0.001085621
    -0.001468394
    -0.000935751
    -0.001446635
    -0.000731465
    -0.000658737
    -0.001007644
    -0.000773731
     0.000077885
     0.000003448
    -0.000000001
     0.000566782
     0.000000832
     0.000131472
    -0.001015180
    -0.001882775
    -0.000256312
    -0.001990977
    -0.000008787
    -0.000201406
    -0.000338781
    -0.000488151
    -0.001532639
    -0.000559202
     0.000387289
     0.000744395
    -0.000231015
     0.000601501
     0.000753515
    -0.001950502
    -0.000000108
    -0.000000001
    -0.002432441
     0.000563930
     0.000016985
    -0.001234169
    -0.000728932
    -0.000001322
    -0.000306407
    -0.000614683
    -0.000222084
    -0.000000084
    -0.000091526
    -0.001221234
    -0.002462747
    -0.001741845
    -0.000795697
    -0.000232445
     0.000275089
     0.000726229
    -0.000000014
    -0.000488849
    -0.002071068
    -0.000000000
     0.000008538
     0.000328346
    -0.000000010
    -0.001509020
    -0.001344960
    -0.000759041
    -0.000786928
    -0.001434160
    -0.000889312
     0.000592204
    -0.000000514
    -0.001370862
    -0.001876662
    -0.000000161
     0.000051041
    -0.001881465
    -0.000000002
    -0.000011919
     0.000133663
    -0.000569042
    -0.000084153
    -0.000076160
    -0.001012757
    -0.002018757
    -0.000748968
    -0.002149473
     0.000527815
    -0.000886290
    -0.002440491
    -0.000818250
    -0.000981994
    -0.000042112
     0.000467561
    -0.001621733
    -0.002133764
    -0.001164837
     0.000286520
    -0.000543163
     0.000569438
    -0.000535523
    -0.001801540
    -0.000664931
     0.000000102
    -0.000706461
    -0.001596804
    -0.001444126
    -0.003220500
     0.000581785
     0.000432120
    -0.001747257
    -0.000000145
    -0.001528634
    -0.000709919
    -0.000434272
    -0.001304979
     0.000006552
     0.000211986
    -0.002178808
    -0.000723210
     0.000003227
    -0.001277162
    -0.001667969
    -0.000539618
    -0.001686125
    -0.001867603
    -0.001806632
    -0.000375900
    -0.000845409
    -0.002085495
    -0.001366496
     0.000076761
    -0.002158998
     0.000395259
    -0.002179084
    -0.000000006
    -0.000013898
     0.000313354
     0.000482881
    -0.000751203
     0.000430594
    -0.000000162
     0.000603240
     0.000134894
    -0.000378231
     0.000272301
    -0.000068376
    -0.000000007
    -0.000188185
    -0.000427476
    -0.000824895
    -0.000648947
     0.000019162
     0.000568565
     0.000722217
     0.000737363
     0.001846675
     0.001210076
    -0.000004531
    -0.000008381
     0.001764081
     0.001483247
     0.000470737
     0.001309073
     0.001293627
    -0.000000004
     0.001333511
     0.001153953
     0.001430232
     0.000068166
     0.001188879
     0.001024052
     0.001365708
     0.001197187
     0.001914218
     0.001252650
     0.000985169
     0.001485512
     0.001462781
     0.001232855
     0.000668493
     0.001745970
     0.001132880
    -0.000000016
     0.001475437
     0.001723041
     0.000040670
     0.001745979
    -0.000000046
     0.001315857
     0.000383674
    -0.000000000
     0.000049851
     0.000669876
     0.001335857
     0.000231322
    -0.000000004
     0.001680458
     0.001530083
     0.001121518
     0.001790516
     0.001540960
    -0.000001061
     0.001449369
    -0.000000436
     0.001765626
     0.001257593
     0.001421424
    -0.000005580
    -0.000008855
     0.001241082
     0.001769791
     0.000824333
     0.001643342
    -0.000000036
     0.001669057
    -0.000009245
     0.000566608
     0.000725209
     0.000005704
     0.001134656
     0.001525375
     0.001706143
     0.001468849
    -0.000004415
     0.000284790
     0.000493449
    -0.000003208
     0.001563416
     0.000810272
     0.001384488
     0.001036318
     0.001366348
     0.001305476
     0.001101607
     0.001288397
     0.001083655
     0.001786153
     0.001330025
     0.001852814
     0.001303512
     0.001931204
     0.001656519
     0.001903595
     0.001608139
    -0.000000002
    -0.000008990
     0.001804494
    -0.000003947
     0.000274236
     0.001809369
     0.000114236
     0.001776412
     0.001330320
    -0.000000054
     0.001747935
    -0.000001858
    -0.000001922
     0.001517932
    -0.000017205
    -0.000015736
     0.001476066
     0.001845541
     0.001326050
     0.001787524
     0.001283098
    -0.000010368
    -0.000001128
     0.001396180
     0.001818879
     0.001210830
     0.001685472
     0.001965344
     0.001544314
     0.001500055
     0.000148766
    -0.000000038
     0.001564657
     0.001557664
     0.001768699
     0.000563458
     0.000734632
     0.000009199
     0.001532726
     0.001201796
     0.001470893
     0.001772860
     0.000239087
    -0.000004207
     0.001574061
    -0.000003297
     0.000551473
    -0.000000000
     0.001398098
     0.000710164
     0.001377143
     0.000969481
     0.001098896
     0.001297623
     0.001079160
     0.001278846
     0.001337204
     0.001815539
     0.001308427
     0.001894661
     0.001658138
     0.001928038
     0.001602210
     0.001888783
     0.001787094
    -0.000009373
    -0.000000003
     0.001813500
     0.000227347
    -0.000006357
     0.001769230
     0.000130119
     0.001747401
    -0.000000043
     0.001403081
     0.001529812
    -0.000001038
    -0.000002834
     0.001484086
    -0.000013079
    -0.000015631
     0.001328301
     0.001831415
     0.001281079
     0.001774541
     0.001406612
    -0.000000582
    -0.000005090
     0.001211920
     0.001805872
     0.001684990
     0.001954715
     0.001540233
     0.001490360
     0.000103004
     0.001545055
    -0.000000076
     0.001494554
     0.001761095
