#
# Number of atoms
#
 76
#
# The current total energy in Eh
#
  -3975.597016708145
#
# The current gradient in Eh/bohr
#
      -0.000004187048
      -0.000005167839
       0.000004502971
       0.000012395857
      -0.000004006104
       0.000001955174
       0.000006815810
      -0.000004471881
      -0.000000653702
      -0.000006129970
       0.000012515028
      -0.000003567923
      -0.000011133939
      -0.000006725831
      -0.000009156028
       0.000009103248
       0.000006884123
       0.000010415993
       0.000002616304
      -0.000010152458
      -0.000000701240
      -0.000001984607
      -0.000002525703
       0.000001014423
      -0.000006847705
       0.000004531765
      -0.000005447092
      -0.000000035766
       0.000000421758
       0.000006298473
      -0.000006558108
      -0.000004753899
       0.000005118009
       0.000006639926
       0.000002610778
      -0.000001716095
       0.000005413007
       0.000001120788
       0.000000452477
       0.000006403140
      -0.000003300461
       0.000000706433
       0.000006101351
      -0.000000659816
      -0.000001186532
       0.000000732267
       0.000004168974
      -0.000000679338
      -0.000004035922
       0.000001931291
      -0.000001600620
      -0.000004600640
       0.000008357925
       0.000003263230
      -0.000006059435
       0.000002030470
       0.000000244704
       0.000000376188
       0.000001981266
       0.000000095964
      -0.000001337107
       0.000000318730
      -0.000003752524
       0.000002901777
      -0.000000359116
      -0.000002175191
      -0.000001968536
      -0.000000128908
      -0.000002640149
      -0.000004183170
      -0.000000153406
      -0.000006695450
      -0.000000282033
       0.000000424454
       0.000004264481
       0.000003659516
      -0.000003084353
       0.000005683721
      -0.000003407145
       0.000002860929
       0.000000689770
      -0.000001619966
      -0.000003778550
       0.000007529371
      -0.000012180848
      -0.000000460934
       0.000000564532
       0.000004467638
       0.000005356882
       0.000001001119
      -0.000002052499
       0.000002713778
      -0.000002068281
       0.000008199793
       0.000000485340
      -0.000002835251
       0.000001309239
      -0.000000445551
       0.000001250348
       0.000004421452
       0.000002223282
      -0.000000805737
       0.000001678739
       0.000001471968
      -0.000001360200
       0.000001156356
       0.000003582830
      -0.000003289198
       0.000000491611
      -0.000002311813
       0.000006514599
      -0.000002138165
       0.000004679098
       0.000005248101
       0.000002961709
       0.000000457837
      -0.000000891927
       0.000001897747
      -0.000006545359
      -0.000001204522
      -0.000004539703
      -0.000000437987
       0.000003944805
      -0.000002736868
      -0.000004382657
       0.000002036396
       0.000001636892
      -0.000003092618
      -0.000004523878
      -0.000004588322
      -0.000002635266
      -0.000003732034
       0.000004764985
      -0.000004141759
       0.000003923880
      -0.000000294327
      -0.000000748900
      -0.000002708686
      -0.000001802956
       0.000001130257
       0.000006173002
      -0.000000967284
      -0.000000694052
      -0.000001293760
      -0.000005369052
       0.000001930219
       0.000002413450
      -0.000001389314
      -0.000000228498
      -0.000004032618
       0.000005460240
      -0.000001906160
      -0.000001540299
       0.000001880993
       0.000000498530
       0.000004697982
      -0.000005109690
       0.000000972213
      -0.000002417718
      -0.000002934029
      -0.000000013267
       0.000000904848
       0.000001906554
      -0.000000142935
       0.000001426081
       0.000000437817
      -0.000001448785
      -0.000004529541
      -0.000000759141
       0.000000448188
       0.000000835958
      -0.000000056509
       0.000001415131
       0.000006343867
       0.000004930528
       0.000000395104
       0.000002961703
       0.000002884373
      -0.000000180367
      -0.000000662412
       0.000004818291
      -0.000001770952
      -0.000004487505
       0.000004061317
      -0.000009903993
       0.000007513917
      -0.000004194381
      -0.000000419934
       0.000005582736
       0.000001018191
       0.000002507115
      -0.000004759597
      -0.000003152420
       0.000010304796
       0.000001646295
       0.000000259042
      -0.000000881083
      -0.000001324334
       0.000001240323
       0.000006739464
      -0.000001865058
      -0.000002552100
      -0.000000462089
       0.000004361940
      -0.000003600999
       0.000000467693
      -0.000014330116
       0.000002712790
      -0.000003401925
       0.000005271417
      -0.000000063000
       0.000001221433
      -0.000004726888
      -0.000003612859
       0.000000510006
      -0.000003481226
      -0.000007476700
      -0.000001187450
      -0.000010201716
       0.000001973609
      -0.000000749064
      -0.000007443797
       0.000000705190
       0.000001448639
       0.000002666283
       0.000005508493
      -0.000003256278
       0.000000969701
#
# The atomic numbers and current coordinates in Bohr
#
  40    -1.3483254    3.1717885    3.5504609 
  40     0.6602287   -3.4095445   -2.9150695 
  40     3.1040896   -2.1238279    2.9091752 
  40    -3.7862437    1.8425587   -2.2185044 
  40     2.6077185    2.6259906   -2.0866035 
  40    -3.2623130   -2.9184783    2.7694851 
   8    -3.8110563    0.6408105    1.4201047 
   8     3.1195284   -0.8777718   -0.7728735 
   8    -0.0392096   -3.8110076    0.8273280 
   8    -0.6550797    3.5859034   -0.2245016 
   8    -0.4890917    0.2650829   -3.3930856 
   8    -0.1827052   -0.4888415    4.0109031 
   8    -3.7906134    2.3910765    6.7575478 
   8    -4.5136587    5.7837496    2.9968147 
   8     1.7288060    3.2937463    6.3281021 
   8     0.6750020    6.8349717    3.2377105 
   8    -1.3560914   -7.0819411   -2.5691950 
   8    -2.4456469   -3.5421524   -5.6581425 
   8     3.8449168   -5.9785415   -2.4517537 
   8     3.0657943   -2.5423790   -6.1666045 
   8     2.2942686   -5.2001461    5.5371844 
   8     3.9920869   -0.2717335    6.5643697 
   8     5.3469118   -5.2420271    1.4142941 
   8     6.5507212    0.1084008    2.4802816 
   8    -7.2286391   -0.4252138   -1.8102274 
   8    -5.9744271    5.0334577   -0.8822570 
   8    -4.6995286    0.0262003   -5.8998281 
   8    -2.9600311    4.8978626   -5.0120889 
   8     1.1423185    5.8116218   -4.8344156 
   8     3.5779646    5.7856377    0.3630588 
   8     4.0552604    1.5344192   -5.7679697 
   8     6.6839214    2.3713105   -1.0910202 
   8    -7.3339167   -2.7476765    1.7230640 
   8    -4.9450861   -1.6365613    6.3220006 
   8    -4.2205522   -6.1952674    0.4132313 
   8    -1.8918377   -5.6631703    5.5106400 
   6    -4.9036685    0.4269139    7.4580547 
   6    -5.9553288    6.1929543    1.1839997 
   6     3.1224798    1.7290534    7.4431963 
   6     2.4574015    7.3260416    1.7899635 
   6    -3.0683740   -7.6549150   -1.0640581 
   6    -3.8355138   -1.9758317   -6.7778055 
   6     5.3380764   -6.3589243   -0.6662498 
   6     4.0349133   -0.5294333   -6.9207453 
   6     0.2884949   -6.2292706    6.2244257 
   6     7.6722932    1.2210703    0.7022061 
   6    -8.3353067   -1.5718160   -0.0477368 
   6    -1.1045623    6.1253943   -5.6628643 
   1    -4.3669950   -2.4475863   -8.7278791 
   1     6.7837338   -7.8175905   -0.9511074 
   1     3.6544424    2.1993615    9.3932899 
   1    -7.3481370    7.7113477    1.4098890 
   1     4.9636700   -0.5672164   -8.7736078 
   1    -1.3498849    7.6220445   -7.0776043 
   1     3.1580533    9.2788262    1.7633136 
   1     9.7460558    1.1935282    0.7659897 
   1    -3.6660473   -9.6425312   -1.0429098 
   1   -10.4100855   -1.5561140   -0.1043765 
   1    -5.9452441    0.5343595    9.2476410 
   1     0.4510139   -7.7816727    7.5891266 
  13     3.8788275    8.3908939   -5.6973456 
  13     1.4864741   13.2910805   -3.2824658 
   1     4.1406880   14.3199490   -1.9006236 
   1     1.2460326   14.4296056   -6.0193734 
   1     2.3578212   10.2497867   -3.5047348 
   1     2.9351209    8.9496333   -8.4728489 
   1     6.0810251   11.0603496   -5.7486320 
   1    -0.6295049   13.3265258   -1.1800574 
  13     6.7611495   16.1871594   -1.9851923 
   1     8.6344133   14.2154343   -3.5842235 
   1     6.1306024   18.4926993   -3.7612060 
   1     6.0338697    6.6106584   -4.5995301 
  13     8.4293809   10.9322194   -3.6963540 
   1    11.0131694   10.1007337   -4.9153741 
   1     7.4486605   10.2930315   -0.9456954 
   1     7.6385637   16.3637233    0.8533510 
