#
# Number of atoms
#
 76
#
# The current total energy in Eh
#
  -3976.513266137812
#
# The current gradient in Eh/bohr
#
       0.000073966811
       0.000101722628
       0.000002691761
      -0.000094267458
      -0.000120308727
      -0.000073275019
       0.000022219976
      -0.000090857035
       0.000011435885
      -0.000046773868
      -0.000038218054
      -0.000080480159
       0.000109966393
       0.000128801387
      -0.000054480252
       0.000002797675
       0.000000966912
      -0.000163785299
      -0.000085723029
      -0.000007251534
       0.000029626093
       0.000018094991
      -0.000061954533
       0.000017627711
       0.000094285266
       0.000028782264
       0.000073641591
       0.000117973309
       0.000021011284
      -0.000008764030
      -0.000109600940
       0.000080490405
       0.000066779552
       0.000064993059
      -0.000031292653
       0.000007087084
      -0.000002991983
       0.000049954496
       0.000005144053
      -0.000093767137
       0.000032853407
       0.000104351330
      -0.000069847420
       0.000130916552
      -0.000037592476
      -0.000130681427
      -0.000081976940
       0.000114053769
       0.000074541956
       0.000006758019
      -0.000046289857
      -0.000004838480
       0.000033840341
      -0.000014635435
       0.000001341213
      -0.000024875622
       0.000035581820
      -0.000048673574
      -0.000039762730
       0.000028121269
       0.000021744767
       0.000035747374
      -0.000003150939
      -0.000019424011
      -0.000055006168
       0.000012126532
       0.000007885321
       0.000032674186
       0.000050357591
      -0.000010512634
       0.000044118034
      -0.000028684954
       0.000028917549
       0.000001266307
      -0.000040655150
      -0.000104867779
      -0.000079976044
      -0.000114278710
      -0.000013318714
       0.000013350545
       0.000079107426
       0.000041911104
       0.000011526584
       0.000024535470
       0.000047176422
      -0.000077682011
       0.000076016460
       0.000057099977
      -0.000090839962
      -0.000110142931
      -0.000005662004
      -0.000037875992
       0.000020767407
      -0.000071630356
       0.000052407006
      -0.000031674085
      -0.000029169034
      -0.000025464533
       0.000025635318
      -0.000031351694
       0.000012212852
       0.000079899312
      -0.000044798974
      -0.000029296292
       0.000001307303
      -0.000002401062
       0.000047909960
       0.000024733168
      -0.000005184635
      -0.000057699665
      -0.000009466485
       0.000178982182
      -0.000038589600
       0.000014034983
       0.000030693812
      -0.000055338193
      -0.000011992217
      -0.000002068760
       0.000031544149
       0.000002936358
      -0.000031980913
       0.000055528313
       0.000080680786
       0.000022035753
      -0.000028242001
      -0.000006446422
       0.000054396149
      -0.000050437067
      -0.000063618497
       0.000059672577
       0.000104767532
      -0.000025792316
      -0.000009486124
      -0.000031064403
       0.000018423324
       0.000029769211
      -0.000040034693
       0.000074622848
      -0.000015866174
       0.000018228778
      -0.000013630845
      -0.000036292564
       0.000098209694
      -0.000055931462
       0.000011841944
      -0.000010394744
       0.000005773767
      -0.000047749338
       0.000024710684
       0.000004216072
      -0.000009908168
       0.000023005870
      -0.000003762446
      -0.000017881158
       0.000016963790
       0.000006664248
      -0.000007613917
      -0.000020253591
      -0.000017966605
      -0.000000711492
       0.000022172190
       0.000013070980
      -0.000030567792
      -0.000017831726
      -0.000075001882
      -0.000011816001
      -0.000007790650
      -0.000017427653
       0.000000498542
      -0.000016144703
      -0.000010026588
       0.000018882597
      -0.000003462933
       0.000011807949
      -0.000000707120
      -0.000003034369
       0.000015184220
       0.000012575437
      -0.000009068486
      -0.000008096973
       0.000032854644
       0.000024463276
      -0.000053758959
       0.000047027372
       0.000093222938
       0.000064650907
       0.000015995176
      -0.000000908367
       0.000065193599
      -0.000054278086
      -0.000058474444
       0.000022266206
       0.000073743918
      -0.000034290413
      -0.000004938721
       0.000021815485
       0.000005106928
       0.000023805308
      -0.000026015969
      -0.000029791478
      -0.000127790311
      -0.000028365521
      -0.000048188505
      -0.000098473081
       0.000008807726
      -0.000045534969
      -0.000061511392
      -0.000082142578
       0.000118163084
      -0.000004644320
       0.000017240409
       0.000008762955
       0.000066481246
      -0.000028229972
      -0.000003846911
       0.000018001777
       0.000089329868
      -0.000075521639
       0.000191810613
      -0.000030655776
      -0.000020807022
      -0.000029032145
      -0.000007035786
       0.000072189252
      -0.000023929023
      -0.000006219125
       0.000015039389
      -0.000059125490
#
# The atomic numbers and current coordinates in Bohr
#
  40    -1.0782522    3.3264027    3.5533801 
  40     0.5268505   -3.5763465   -2.9825146 
  40     3.1920412   -2.2960180    2.9109232 
  40    -3.7179015    2.0118821   -2.2953881 
  40     2.8711991    2.5079525   -2.2546392 
  40    -3.3570589   -2.8033957    2.8683431 
   8    -3.7281652    0.8318102    1.4326719 
   8     3.1875771   -1.0775738   -0.8576764 
   8    -0.1420325   -3.8751653    0.8562433 
   8    -0.3863654    3.6431278   -0.3119921 
   8    -0.4462647    0.2218291   -3.4952064 
   8    -0.0707796   -0.4545111    4.0464469 
   8    -3.6380149    2.7077608    6.8171386 
   8    -4.1438328    6.1784179    2.9660313 
   8     2.0248788    3.3455715    6.4301150 
   8     1.2025027    6.9340444    3.1864857 
   8    -1.7604425   -7.1830455   -2.5273885 
   8    -2.6254191   -3.6112018   -5.7890787 
   8     3.6247079   -6.3803027   -2.4930517 
   8     3.0204747   -2.8970643   -6.3123646 
   8     2.2530456   -5.3246270    5.6849963 
   8     4.2589736   -0.3293857    6.5551829 
   8     5.2310863   -5.6584474    1.4165269 
   8     6.8659428   -0.3197486    2.3676978 
   8    -7.3793296   -0.0318056   -1.7826249 
   8    -5.6978085    5.4354030   -0.9602459 
   8    -4.8109880    0.0861100   -5.9753822 
   8    -2.7964069    5.0013281   -5.2352601 
   8     1.4240672    5.7010291   -5.1063166 
   8     4.0769064    5.6367228    0.2790019 
   8     4.2364321    1.2042985   -6.0086768 
   8     7.0254879    1.9919758   -1.2601717 
   8    -7.4938982   -2.4434696    1.7779651 
   8    -4.9969470   -1.3441347    6.4733036 
   8    -4.5150110   -6.1919927    0.6255510 
   8    -2.0271048   -5.5610672    5.7431184 
   6    -4.8591557    0.7811277    7.5685276 
   6    -5.5730928    6.6575812    1.1098976 
   6     3.4483736    1.7162443    7.4902766 
   6     3.0507620    7.2845129    1.7188891 
   6    -3.4665561   -7.7002433   -0.9372781 
   6    -4.0265647   -1.9798013   -6.8807372 
   6     5.1213992   -6.8287970   -0.6753481 
   6     4.0963874   -0.9157163   -7.1257324 
   6     0.1691276   -6.2271445    6.4481635 
   6     8.0070874    0.7656360    0.5366252 
   6    -8.5003586   -1.1845389    0.0152026 
   6    -0.8436570    6.1277266   -5.9264198 
   1    -4.6557440   -2.4577714   -8.8622790 
   1     6.4978960   -8.4329278   -0.9454564 
   1     4.0792410    2.1715160    9.4765282 
   1    -6.8769495    8.3305896    1.3022424 
   1     5.0277641   -1.0454660   -9.0372625 
   1    -1.0232657    7.6549084   -7.4009852 
   1     3.9165343    9.2324309    1.6797751 
   1    10.1359407    0.6314569    0.5501628 
   1    -4.1696145   -9.7143225   -0.9123720 
   1   -10.6316603   -1.0903118    0.0042602 
   1    -5.9294778    0.9877764    9.3992791 
   1     0.2736335   -7.7804005    7.9028703 
  13     4.4611309    8.1740699   -5.9370254 
  13     1.1140797   12.6912376   -3.4727963 
   1     2.8220230   14.0521148   -1.0291084 
   1     1.4565855   14.3381984   -6.0143322 
   1     3.0164976   10.0693416   -3.6133257 
   1     3.4889083    8.8589109   -8.7556620 
   1     6.8807255   10.7773219   -6.0320739 
   1    -1.5302520   11.7548196   -2.2566922 
  13     5.2694074   16.2838426   -1.2402702 
   1     7.0197916   14.9174543   -3.6202975 
   1     4.0734519   18.8300415   -2.4201034 
   1     6.3880452    6.1031472   -4.7802711 
  13     8.5909109   11.9515399   -3.6053393 
   1    11.4466981   12.6022911   -4.4642290 
   1     7.7993712   10.6666335   -0.9425239 
   1     6.7076826   16.0283913    1.4375369 
