#
# Number of atoms
#
 72
#
# The current total energy in Eh
#
  -3731.704287006224
#
# The current gradient in Eh/bohr
#
      -0.000002614626
       0.000000829115
       0.000006111647
      -0.000004283197
      -0.000001033160
      -0.000000952705
      -0.000001030594
       0.000003448348
       0.000001375201
       0.000006356097
       0.000002482071
       0.000005117392
       0.000002461254
       0.000001103460
      -0.000009969339
      -0.000005529545
       0.000003262594
       0.000004766393
       0.000001439049
      -0.000002397440
      -0.000000421658
      -0.000001304873
      -0.000000278704
       0.000001149360
      -0.000002965989
       0.000000245161
      -0.000001191126
      -0.000001021042
      -0.000003754209
       0.000000945867
       0.000003005798
       0.000001383700
      -0.000002154192
       0.000002912372
       0.000001135584
      -0.000003014910
       0.000000996641
       0.000004753545
       0.000000847491
      -0.000000058990
       0.000001662789
       0.000003715927
       0.000000974192
       0.000004386535
       0.000002241634
       0.000003620963
       0.000004981099
       0.000001944014
      -0.000002298080
      -0.000006904620
      -0.000002605744
      -0.000003383401
      -0.000002600653
       0.000002963473
      -0.000000336712
      -0.000002948134
      -0.000002627644
      -0.000001736515
      -0.000000655749
      -0.000003702293
       0.000001343402
      -0.000003359837
       0.000005189122
       0.000005436380
       0.000001036701
       0.000005842099
      -0.000001530898
      -0.000004521702
       0.000001346486
      -0.000000911391
      -0.000003570044
      -0.000001863521
      -0.000008669515
       0.000001198200
      -0.000001544174
      -0.000003253665
       0.000003929060
      -0.000000621628
      -0.000004945716
       0.000001124262
      -0.000003196711
       0.000000138290
       0.000000068925
      -0.000001545750
       0.000001037446
      -0.000000755967
       0.000004364946
       0.000004433720
       0.000006753549
       0.000004129092
      -0.000000404507
      -0.000001699826
      -0.000001260181
      -0.000001985384
      -0.000000092790
       0.000000221724
      -0.000002129933
       0.000000621957
       0.000003198191
       0.000000266588
       0.000001093745
       0.000001667944
      -0.000003888412
      -0.000001871169
      -0.000001197906
      -0.000002203828
      -0.000000790476
       0.000000400950
       0.000005034121
      -0.000000153738
      -0.000003055961
       0.000006512546
      -0.000004684696
      -0.000000279329
      -0.000001728601
      -0.000002899867
      -0.000009030215
      -0.000000798634
      -0.000007448565
      -0.000002620006
      -0.000000077791
       0.000009712389
       0.000004950177
       0.000002356522
       0.000003125179
       0.000006591181
      -0.000005848321
       0.000007819610
       0.000000804173
      -0.000005260681
      -0.000000885131
       0.000003110212
       0.000000747518
       0.000006538691
      -0.000005241953
       0.000001130934
       0.000001883010
      -0.000003500547
       0.000008392337
       0.000003954393
       0.000000939520
       0.000000446834
      -0.000002157600
       0.000001672140
      -0.000001227651
       0.000001503938
       0.000000802001
      -0.000002208386
      -0.000000517587
      -0.000000385522
       0.000001745457
      -0.000000017721
      -0.000000443906
       0.000002431205
       0.000001938005
       0.000001098732
      -0.000002078244
      -0.000000885466
      -0.000000541616
      -0.000000289716
      -0.000000314205
       0.000000017591
       0.000001548960
      -0.000000722972
      -0.000000487102
      -0.000001068091
      -0.000002738588
      -0.000000557511
      -0.000001904987
       0.000001218632
       0.000001010502
      -0.000000615835
       0.000002013449
       0.000003092763
       0.000002044571
       0.000001992124
       0.000001474963
      -0.000000805772
       0.000001086565
       0.000000711735
      -0.000001255578
      -0.000008506005
      -0.000010759439
      -0.000002682838
       0.000001018893
      -0.000004864527
       0.000004189796
      -0.000002041179
       0.000004137493
      -0.000002444601
      -0.000003515370
      -0.000000268411
       0.000005158718
       0.000004381073
       0.000000060494
       0.000000800914
      -0.000000773953
      -0.000001570362
       0.000002921861
      -0.000005330871
       0.000003358119
      -0.000000232831
      -0.000003962523
       0.000000152498
       0.000000338957
      -0.000000938731
      -0.000006004909
       0.000003611102
      -0.000004300262
      -0.000002170345
       0.000000995555
      -0.000002358960
      -0.000000152452
       0.000002185245
      -0.000001297853
      -0.000001719694
#
# The atomic numbers and current coordinates in Bohr
#
  40    -0.7977096    3.5755634    3.4441371 
  40     0.7522703   -3.3467991   -2.7696069 
  40     2.7712816   -2.4635805    3.2494248 
  40    -2.7302983    2.6740018   -2.5874204 
  40     3.6018439    2.3261944   -1.6614869 
  40    -3.5902617   -2.0698971    2.4843263 
   8    -3.3276793    1.4809262    1.0551809 
   8     3.4707851   -1.2150339   -0.2872099 
   8    -0.3863469   -3.5420327    0.8797808 
   8     0.3806762    3.9493486   -0.2450176 
   8     0.3505855    0.4570020   -3.2705848 
   8    -0.2710418   -0.2087682    4.0735338 
   8    -3.7164025    3.3199514    6.3266284 
   8    -3.3646719    6.7035953    2.5894972 
   8     1.7144171    3.3190700    6.8100828 
   8     1.8685188    6.8655859    3.5204406 
   8    -1.9860658   -6.5269846   -2.6671007 
   8    -1.9012864   -2.9543053   -5.9010840 
   8     3.2463724   -6.5116394   -1.9469446 
   8     3.6498856   -3.0900626   -5.6514424 
   8     1.1545999   -4.9744567    6.0998757 
   8     4.0745129   -0.1542903    6.3697276 
   8     4.1177239   -6.2202403    2.1594076 
   8     7.0704291   -2.1029200    3.0491215 
   8    -6.5066124    0.9682578   -2.5663489 
   8    -4.6394662    6.1054480   -1.3798985 
   8    -3.4724762    0.9449084   -6.3471471 
   8    -1.1787869    5.5096788   -5.1369893 
   8     2.9822091    5.1495627   -4.6009671 
   8     4.7587199    4.4314056    1.7078856 
   8     5.5418515    0.5967044   -4.9174997 
   8     7.9582860    0.8878901    0.2135010 
   8    -7.4142531   -1.2057140    0.9462762 
   8    -5.4497997   -0.4792219    5.8061029 
   8    -4.8718966   -5.2303775    0.1370210 
   8    -2.9955324   -4.9295786    5.4034432 
   6    -5.2094827    1.5887420    6.9131333 
   6    -4.5834279    7.2946654    0.6634148 
   6     3.1828995    1.6657747    7.6031709 
   6     4.0004063    6.5174529    2.6264804 
   6    -3.8737369   -6.8332608   -1.2986625 
   6    -2.8669481   -1.1784611   -7.1483549 
   6     4.1677718   -7.3141001    0.0724747 
   6     5.2484840   -1.4111967   -6.1108532 
   6    -1.0589075   -5.6679126    6.5317077 
   6     8.5505619   -0.8385645    1.7787093 
   6    -7.9873217    0.0812484   -0.9345443 
   6     1.0563298    6.1346586   -5.5485052 
   1    -3.2439697   -1.5659307   -9.1520699 
   1     5.1159988   -9.1567450    0.0005287 
   1     3.8057323    1.8312859    9.5753642 
   1    -5.7242314    9.0229290    0.7679662 
   1     6.5124009   -1.7430560   -7.7207897 
   1     1.3643105    7.6963285   -6.8770427 
   1     5.3500726    8.0901578    2.6258266 
   1    10.5823262   -1.2101143    2.0070273 
   1    -4.7915465   -8.6931123   -1.3789756 
   1   -10.0077691    0.4573739   -1.2273775 
   1    -6.4267089    1.9200952    8.5584339 
   1    -1.3284042   -7.0586046    8.0461427 
  13    11.0643864    9.4658958   -1.0031537 
  13     9.9128437    3.5632311   -1.2426666 
   1    10.4780863    4.6594659    1.7450685 
   1     7.4117711    4.6072448   -2.6068398 
   1    11.4211713    6.6540809   -2.2271593 
   1     8.2117764    9.8836022   -0.1778123 
   1    12.5765564    8.8886410    1.8258848 
   1    12.2942572    2.1309941   -2.3278145 
  13    11.7705551    6.5976908    3.8671542 
   1    14.2964792    5.3315930    4.8121616 
   1     9.5611904    7.5579825    5.6275649 
   1    12.7476191   11.5531244   -2.3059618 
