#
# Number of atoms
#
 72
#
# The current total energy in Eh
#
  -3732.534390861451
#
# The current gradient in Eh/bohr
#
      -0.000066489268
       0.000017219134
       0.000038702974
       0.000008223963
       0.000071355044
      -0.000071643882
      -0.000032458512
      -0.000098624924
      -0.000027867041
      -0.000016638807
      -0.000090552191
      -0.000121569223
      -0.000048180725
       0.000011423912
      -0.000017983542
       0.000022091135
       0.000055796283
       0.000050390500
       0.000007484833
      -0.000032700434
      -0.000024920852
       0.000026577563
      -0.000017289314
      -0.000015386559
       0.000015361819
      -0.000015371456
       0.000038063918
       0.000082062259
       0.000026789931
      -0.000036381805
      -0.000072600402
      -0.000018161136
      -0.000016377795
      -0.000051164320
      -0.000020651732
      -0.000004869757
      -0.000002972909
       0.000041356339
      -0.000000474975
      -0.000007504433
       0.000048549851
       0.000068990348
       0.000020053966
      -0.000001597725
       0.000015275043
       0.000006564862
      -0.000037160845
      -0.000038904370
      -0.000012291281
      -0.000050487666
       0.000019839210
       0.000006186859
      -0.000022188122
       0.000053508615
       0.000009456170
      -0.000037067594
      -0.000021592336
      -0.000009808798
      -0.000014909273
      -0.000005429634
       0.000027066957
      -0.000012697823
       0.000040126164
       0.000037442142
      -0.000018505286
       0.000076972314
       0.000043813066
      -0.000022717937
       0.000062518133
      -0.000014985387
       0.000039455741
      -0.000034305761
       0.000004311195
       0.000014632959
      -0.000009315955
      -0.000001157418
       0.000042829244
       0.000012966100
       0.000006052201
       0.000008140381
       0.000062473817
      -0.000025143003
       0.000031354319
      -0.000016113978
       0.000031801434
       0.000013230503
      -0.000004288081
      -0.000008966656
      -0.000001054382
       0.000041593088
       0.000016456185
      -0.000005305072
       0.000019428513
       0.000010575826
      -0.000014589336
      -0.000085804795
       0.000003907503
      -0.000017093714
       0.000018895166
       0.000001187497
      -0.000026524716
      -0.000007773905
       0.000009006582
       0.000058361950
      -0.000006303622
      -0.000038836362
      -0.000005026591
      -0.000000801583
       0.000042674598
      -0.000020716807
      -0.000044284192
       0.000029925192
      -0.000084104543
      -0.000057068757
      -0.000023232698
      -0.000024945271
      -0.000059210247
      -0.000040369629
       0.000143090610
       0.000076364412
       0.000009529975
       0.000000145343
       0.000000521933
      -0.000008547598
       0.000026819411
      -0.000018352858
      -0.000050986282
       0.000098466813
      -0.000006743689
      -0.000028009314
       0.000005991873
       0.000034425580
       0.000010981223
       0.000051237521
      -0.000056340759
       0.000023978087
       0.000009708390
      -0.000003640962
       0.000006153331
      -0.000022933065
       0.000021924715
      -0.000005984540
      -0.000055790804
       0.000048157673
       0.000007859187
      -0.000012951548
       0.000003597823
       0.000004329141
      -0.000002474898
       0.000001447256
      -0.000009573575
       0.000013064085
       0.000007979941
      -0.000002723174
       0.000003083218
       0.000012164142
       0.000003274353
       0.000002017553
       0.000000472543
      -0.000003880279
       0.000001072435
      -0.000004053461
       0.000037100010
      -0.000035003283
      -0.000036402124
      -0.000003296468
      -0.000010706214
       0.000018665985
       0.000003868924
      -0.000003894253
       0.000004275808
       0.000000207146
      -0.000001500643
      -0.000008086929
       0.000003562115
       0.000001193613
       0.000006297010
       0.000000611908
      -0.000000581538
       0.000002911882
      -0.000026468478
       0.000061104213
       0.000013654023
       0.000130025731
       0.000027907343
      -0.000016140432
      -0.000031712058
       0.000086460719
       0.000041184819
      -0.000055004414
      -0.000021134815
      -0.000022587018
      -0.000025733370
      -0.000000753284
       0.000066194948
       0.000026300897
      -0.000026837954
       0.000003557847
      -0.000024321959
      -0.000046387972
      -0.000012365134
      -0.000016974203
      -0.000029040887
       0.000023017275
       0.000053938887
      -0.000012192944
      -0.000090261104
      -0.000006568785
      -0.000006022939
       0.000010948640
      -0.000019056747
       0.000004682066
       0.000000607171
       0.000001637198
      -0.000018289806
      -0.000014468165
#
# The atomic numbers and current coordinates in Bohr
#
  40    -0.8880176    3.5702131    3.6182637 
  40     0.7765800   -3.3878712   -2.8245012 
  40     2.7382091   -2.5823778    3.3778207 
  40    -2.7411798    2.7439185   -2.6009602 
  40     3.7476290    2.3842641   -1.5312668 
  40    -3.7507177   -2.1750892    2.4798614 
   8    -3.4102531    1.4690263    1.0795402 
   8     3.5033432   -1.2625119   -0.1983829 
   8    -0.4479349   -3.6257526    0.8822968 
   8     0.4147635    3.9740372   -0.1045921 
   8     0.4033150    0.4947027   -3.2718935 
   8    -0.3862902   -0.3044520    4.1991844 
   8    -3.9495839    3.2666029    6.4778633 
   8    -3.4814601    6.7834564    2.7524567 
   8     1.6166423    3.2436236    7.0879967 
   8     1.8432773    6.9036036    3.8045865 
   8    -2.0760833   -6.5891242   -2.8209739 
   8    -1.8167347   -2.9483782   -6.1081772 
   8     3.2615187   -6.6712528   -1.9564167 
   8     3.8214133   -3.1507343   -5.6634800 
   8     1.0227589   -5.2278002    6.1734310 
   8     4.0011666   -0.3019514    6.6525798 
   8     4.1576258   -6.3847910    2.2244036 
   8     7.1242658   -2.1537164    3.2597094 
   8    -6.6400562    1.1117202   -2.6766223 
   8    -4.6401742    6.2708855   -1.3422258 
   8    -3.4670104    1.0073466   -6.4599732 
   8    -1.1195294    5.6621349   -5.1392761 
   8     3.1085158    5.2596535   -4.5579844 
   8     4.8986318    4.6241891    1.8815083 
   8     5.7369729    0.6007140   -4.8803173 
   8     8.0410143    0.9174679    0.4122820 
   8    -7.5868942   -1.2661227    0.7816823 
   8    -5.7338046   -0.5746397    5.8352355 
   8    -5.0194242   -5.4087593    0.0845141 
   8    -3.2002447   -5.0904525    5.4705894 
   6    -5.4939871    1.5066682    6.9987414 
   6    -4.6489060    7.4262107    0.7630551 
   6     3.0879435    1.5466747    7.8989974 
   6     4.0357718    6.6475498    2.9171892 
   6    -3.9952724   -6.9614045   -1.4466426 
   6    -2.8242828   -1.1239181   -7.3223881 
   6     4.2023356   -7.4821786    0.0941736 
   6     5.4486508   -1.4365372   -6.0964919 
   6    -1.2417940   -5.8904152    6.6000252 
   6     8.6311534   -0.8553967    1.9873956 
   6    -8.1517690    0.1088094   -1.0887939 
   6     1.1653304    6.2611758   -5.5430572 
   1    -3.2084995   -1.4762114   -9.3908567 
   1     5.1824572   -9.3728319    0.0132550 
   1     3.6975516    1.6976740    9.9369974 
   1    -5.8198230    9.2031499    0.8711111 
   1     6.7691808   -1.7769154   -7.7343353 
   1     1.5067822    7.8476805   -6.9240589 
   1     5.3707374    8.3009506    3.0452042 
   1    10.7180441   -1.2373364    2.2241540 
   1    -4.9321413   -8.8706523   -1.6140387 
   1   -10.2297116    0.4662637   -1.4158396 
   1    -6.7836097    1.8290690    8.6637747 
   1    -1.5446790   -7.3358621    8.1362178 
  13    11.0372395    9.5545915   -1.4369640 
  13    10.0158449    3.5571536   -1.3063320 
   1    10.7700254    4.7486369    1.6832562 
   1     7.2988044    4.5316129   -2.4866998 
   1    11.4120284    6.6191018   -2.6142008 
   1     8.1765215    9.9388490   -0.4054249 
   1    12.8670876    9.1722132    1.3388027 
   1    12.3076420    1.9602677   -2.5358481 
  13    12.2043541    6.9288803    3.6186173 
   1    14.8870953    5.7239989    4.4403368 
   1    10.0630076    7.9918406    5.5193273 
   1    12.6025496   11.6312466   -3.0391441 
