Corrected dielectric energy   =     -0.004582720
Total C-PCM charge            =      0.000000000
C-PCM corrected charges:
     0.000197400
    -0.000331483
    -0.000577272
     0.000232543
    -0.002314039
    -0.000597776
    -0.000081920
    -0.000971577
    -0.000129586
    -0.001615298
     0.000391305
    -0.001930049
    -0.001221472
    -0.001898131
    -0.000043182
    -0.000743719
     0.000004188
    -0.001481798
    -0.001119626
    -0.000000003
     0.000607629
    -0.000177514
    -0.000000001
     0.000566178
    -0.000048255
    -0.001435651
     0.000437574
    -0.000005613
    -0.000445937
     0.000527809
     0.000163488
    -0.000004193
    -0.003352080
     0.000403146
    -0.000736307
    -0.000336604
     0.000449053
    -0.000861934
    -0.000024691
    -0.000952743
    -0.000000322
    -0.000357551
    -0.000002281
    -0.001594257
    -0.001745711
    -0.000872300
    -0.000000093
    -0.001659885
    -0.000877815
    -0.000939721
    -0.001345200
    -0.000266272
    -0.000000004
    -0.000879734
    -0.001111164
    -0.000503348
     0.000042659
    -0.000510072
    -0.000509476
     0.000249963
    -0.000108311
    -0.002295187
    -0.002411419
    -0.001477969
    -0.001115683
    -0.001607240
    -0.001352231
    -0.000813224
    -0.000373510
    -0.001109346
    -0.000819976
     0.000003598
     0.000466919
     0.000462696
    -0.000031735
    -0.001838863
    -0.000505833
    -0.002084707
    -0.001495108
    -0.000004325
    -0.000954031
     0.000496799
    -0.001593903
    -0.001046231
    -0.000000025
     0.000258501
     0.000686821
    -0.000000024
    -0.000883548
     0.000034744
    -0.001322140
     0.000063047
     0.000004029
    -0.002357837
     0.000295138
    -0.000000435
    -0.000133812
     0.000729589
    -0.000732184
    -0.000316552
    -0.000199119
    -0.000013794
    -0.000895573
     0.000498642
    -0.000000412
    -0.000000005
    -0.002325376
    -0.002302058
    -0.001139920
     0.000004269
    -0.000000001
    -0.000000030
    -0.000527224
    -0.002005794
    -0.000986903
     0.000029523
    -0.000140648
    -0.001345844
    -0.001855934
    -0.000000066
    -0.000468025
    -0.001674978
     0.000402568
    -0.000002032
    -0.000107913
    -0.000000000
    -0.000000000
    -0.001079022
    -0.001502913
    -0.001150853
     0.000642329
    -0.000002028
     0.000178155
     0.000007785
     0.000183306
    -0.000712680
    -0.000646924
    -0.000586608
    -0.002003944
    -0.000160626
    -0.002504073
    -0.000931414
     0.000135971
    -0.002113800
    -0.002080584
    -0.001381299
     0.000314136
    -0.001910622
    -0.000708191
    -0.001759877
    -0.001716261
    -0.000001505
     0.000678449
     0.000439964
     0.000085307
    -0.000415622
    -0.001613163
    -0.001164150
    -0.000000012
    -0.001297590
    -0.000894140
    -0.000000063
     0.000403071
    -0.002505106
    -0.001840565
    -0.000896250
     0.000004396
    -0.001456266
    -0.000451493
    -0.001369287
    -0.000044623
     0.000323441
    -0.000000041
    -0.000019151
     0.000207970
    -0.001609913
    -0.001487894
    -0.000423216
    -0.001911728
    -0.001694926
    -0.001750223
    -0.000509732
    -0.000731557
     0.000401224
    -0.002180434
    -0.002040257
    -0.001796695
     0.000252338
    -0.001987720
    -0.000717336
    -0.000000784
    -0.000598710
    -0.000003143
    -0.000847942
     0.000163042
    -0.000000000
    -0.000000001
     0.000000586
     0.000479809
    -0.000000013
    -0.000205890
     0.000003061
    -0.000846840
     0.000147584
    -0.000883370
     0.000002825
     0.000036823
    -0.001411513
     0.000236019
     0.000235749
    -0.000284773
    -0.000315888
    -0.000221134
    -0.000140511
    -0.000620804
    -0.002132204
    -0.001848445
     0.000027099
    -0.001401233
    -0.001040050
     0.000539619
    -0.001645854
    -0.001567699
     0.000269135
    -0.002261852
    -0.002347085
     0.000100509
    -0.000095637
    -0.000605533
    -0.000333103
     0.000557983
    -0.000329592
    -0.000077021
    -0.001089160
    -0.000447499
    -0.002226286
    -0.002112044
    -0.001144253
    -0.003268575
    -0.001025110
    -0.000418811
    -0.000000210
    -0.002241917
    -0.002146105
     0.000003005
    -0.001807477
    -0.001430951
    -0.000000185
    -0.000233932
    -0.000420073
    -0.000000006
    -0.002492364
    -0.002438394
    -0.000000004
    -0.001475791
    -0.000000005
    -0.000896309
    -0.001391287
    -0.001031420
    -0.000305789
    -0.000615096
    -0.000527589
    -0.000533329
    -0.000716667
    -0.001016159
    -0.001058635
    -0.000700476
    -0.000538133
    -0.000923518
    -0.001025559
    -0.000482322
     0.000646347
     0.000413753
     0.000196486
     0.000458125
    -0.000000428
     0.000608730
     0.000571408
     0.000000013
     0.000450319
    -0.000996572
    -0.000751950
    -0.000134406
    -0.001405149
    -0.000007657
    -0.000633921
    -0.001371156
     0.000103095
    -0.001650669
    -0.001788738
     0.000316443
     0.000545545
    -0.000175021
    -0.000315085
     0.000736104
     0.000512102
     0.000544076
     0.000908467
    -0.000463462
    -0.000887590
     0.000017452
    -0.000000035
    -0.001878169
    -0.001917213
    -0.003170808
    -0.000124729
    -0.000013468
    -0.004195687
     0.000605128
     0.000104346
    -0.000000159
     0.000411191
    -0.001427546
    -0.001591008
     0.000093387
    -0.000213164
    -0.001363543
    -0.001500785
     0.000103800
     0.000013491
     0.000013617
    -0.000090875
    -0.000000009
     0.000036119
    -0.000499575
    -0.000048778
     0.000273917
     0.000000960
     0.000000731
    -0.000538932
    -0.000761745
    -0.000413474
    -0.001154340
    -0.000961976
    -0.000972285
     0.000770967
    -0.001716362
    -0.001816729
     0.000007105
     0.000000174
    -0.001280941
    -0.001295541
    -0.000000000
    -0.000057460
    -0.000003296
     0.000021557
     0.000682979
    -0.001271073
    -0.001844341
    -0.000000013
    -0.000000361
    -0.000485979
    -0.000858135
    -0.000751118
    -0.000920936
     0.000148068
    -0.002100863
    -0.002156450
     0.000337986
     0.000070515
    -0.001714279
    -0.001680295
     0.000465041
    -0.001385904
    -0.000496743
    -0.000016000
    -0.001182747
     0.000268850
     0.000540270
     0.000613930
    -0.000185203
    -0.000169709
     0.000428346
    -0.001535427
    -0.001427998
    -0.000000184
    -0.000051650
    -0.000000003
    -0.000680499
     0.000020066
     0.000003637
    -0.000427587
    -0.000000007
    -0.000001589
     0.000135105
    -0.000000068
    -0.002281247
    -0.002362203
    -0.000000005
     0.000254454
    -0.001076280
    -0.001176336
    -0.000276640
    -0.000000041
    -0.000000034
    -0.000096283
    -0.001581634
    -0.001660776
    -0.000124156
     0.000163753
    -0.000503396
     0.000163841
     0.000499137
    -0.000070816
    -0.000089384
    -0.000995406
     0.000400294
     0.000753571
    -0.001816789
    -0.002021943
     0.000195677
    -0.000515734
    -0.000624263
    -0.000558364
    -0.000217105
     0.000117593
     0.000015325
     0.000222491
    -0.000620079
    -0.000670421
     0.000000917
    -0.000687641
    -0.000662896
     0.000123335
    -0.000000325
    -0.000376967
    -0.000003527
    -0.000000005
    -0.000328051
    -0.000197307
    -0.000084840
     0.000318293
    -0.000862731
    -0.000440321
    -0.000000005
    -0.000073360
    -0.000431685
    -0.000001450
    -0.000000415
    -0.000058436
    -0.000622055
    -0.000124695
    -0.000197975
    -0.000000518
     0.000224464
    -0.000000213
    -0.000674507
    -0.000423523
    -0.000000013
    -0.000392881
    -0.001363617
     0.000613583
     0.000772179
     0.000738260
    -0.000001577
     0.002008963
     0.001761763
    -0.000015388
     0.001247754
    -0.000000002
     0.000141379
     0.001468640
     0.001257986
     0.001341150
     0.001037685
     0.001566027
     0.001499908
     0.001351896
     0.001472022
     0.001288816
     0.001280114
     0.001100006
     0.000144875
     0.001574352
     0.001583149
    -0.000000016
     0.001299384
     0.000537395
     0.002046138
     0.001544380
    -0.000000001
     0.001300491
    -0.000000083
     0.001339399
     0.000002438
     0.001798499
     0.001484781
     0.000572494
     0.001707994
     0.000532808
     0.001354202
    -0.000000402
     0.001875891
    -0.000008453
     0.000933016
     0.001351659
     0.001690267
     0.001662583
     0.001621100
     0.001185873
    -0.000002043
    -0.000011556
     0.001498493
     0.001857145
     0.001335205
    -0.000007249
    -0.000001725
     0.001483223
     0.001916332
     0.001330984
    -0.000000068
     0.000010853
     0.001663829
     0.001268119
     0.001659350
    -0.000037422
    -0.000000052
    -0.000121304
    -0.000092428
    -0.000537272
    -0.000248994
    -0.000624242
     0.000287239
    -0.000274928
    -0.000000491
    -0.000095638
    -0.000027923
     0.000001510
    -0.000142084
    -0.000067108
    -0.000869637
    -0.000007413
    -0.000000005
    -0.001279468
     0.000060832
    -0.000013138
     0.000269445
    -0.000000029
    -0.000093737
    -0.000314812
    -0.000424843
    -0.000000001
    -0.000372286
    -0.000000002
    -0.000527089
     0.000587631
     0.000676385
     0.000709103
     0.000002314
     0.001158774
     0.001752269
     0.001728501
    -0.000000329
     0.001234361
     0.001304790
     0.000090730
     0.001437542
    -0.000000002
     0.001420952
     0.001206962
     0.001174404
     0.001340487
     0.001043604
     0.001259287
     0.001200530
     0.001415729
    -0.000000246
     0.001170473
     0.001193031
     0.001385561
     0.000009414
    -0.000000005
     0.001256889
     0.001552321
     0.001802816
     0.000242323
     0.001747469
     0.001385761
    -0.000004153
    -0.000000648
     0.001194798
     0.000770738
     0.001295181
     0.001701488
     0.000532462
     0.001326085
     0.001222514
    -0.000006058
    -0.000003695
     0.001588346
     0.001110108
     0.001644894
     0.001496057
     0.001362396
    -0.000001455
     0.001316181
    -0.000000169
     0.001216185
     0.001793218
    -0.000003574
     0.001466883
    -0.000007231
     0.001304088
     0.001778249
     0.001590554
    -0.000001705
    -0.000000206
     0.001527923
     0.001204109
    -0.000354961
    -0.000015747
    -0.000071413
    -0.000732335
    -0.000422729
    -0.000766163
    -0.000214274
    -0.000137549
     0.000173448
    -0.000001174
    -0.000859937
    -0.000000007
    -0.000120502
    -0.000451092
    -0.000000003
     0.000376448
    -0.000004800
    -0.000002776
    -0.000070837
    -0.000000007
    -0.000803763
    -0.000000818
    -0.000399740
    -0.000006017
    -0.000088546
    -0.000952695
     0.000308350
    -0.000000026
     0.000240092
    -0.000084178
    -0.000000925
    -0.000009315
     0.000613445
     0.000777540
     0.000703724
     0.001958082
    -0.000000190
     0.001201118
    -0.000006041
     0.001754405
     0.001244758
     0.001430810
     0.001403488
     0.000981277
     0.001578415
     0.000453722
     0.001353156
     0.001420851
     0.001318012
     0.001478996
     0.001090658
     0.001248548
     0.001628412
     0.000142607
     0.001305572
    -0.000000028
     0.001682070
     0.001598552
     0.000059270
     0.001221208
    -0.000000145
     0.001441765
     0.000089369
     0.001420323
     0.001767774
     0.000757497
    -0.000000033
     0.000001121
     0.001264437
     0.001278732
     0.001664701
    -0.000000505
     0.001883132
    -0.000000006
     0.001334892
     0.001051726
     0.000117004
     0.001729795
     0.001442652
     0.001158481
     0.001544172
     0.001527963
    -0.000008490
    -0.000005338
     0.001361945
     0.001812027
    -0.000000634
     0.001369385
    -0.000006968
     0.001920100
     0.001270284
     0.001559445
     0.000935240
     0.000182910
     0.001624994
    -0.000000008
     0.000000000
     0.000354440
    -0.000093675
    -0.000463363
     0.000555021
    -0.000002120
     0.000434252
    -0.000002034
    -0.002330883
     0.000000289
     0.000126383
    -0.001827747
     0.000590621
    -0.001969909
    -0.001663100
    -0.000803836
    -0.000000002
    -0.000503785
     0.000361450
    -0.000000002
    -0.002078004
     0.000000086
    -0.000000421
    -0.000681611
     0.000004243
    -0.000318594
    -0.001961839
    -0.000499781
    -0.000075388
     0.000030794
    -0.000000161
    -0.002416157
    -0.000007167
    -0.001839033
     0.000100127
    -0.000691344
    -0.000338588
    -0.000000230
    -0.000000004
    -0.001800969
     0.000494127
    -0.000813073
     0.000438405
    -0.000509889
    -0.002483690
     0.000724996
     0.000567862
    -0.000072460
    -0.000001847
    -0.001078178
    -0.002113011
     0.000801375
    -0.001886857
     0.000595166
     0.000333176
    -0.000401521
    -0.002414171
    -0.000000129
     0.000456903
    -0.000005186
     0.000093251
    -0.000973443
    -0.003153114
    -0.001631416
    -0.000000001
    -0.000851160
    -0.001382128
    -0.000791874
    -0.001396767
    -0.000554181
     0.000154456
    -0.000618937
     0.000193551
    -0.000000001
     0.000336453
     0.000355343
     0.000301365
     0.000385638
     0.000081627
     0.000081318
    -0.000510742
    -0.001845558
    -0.000191847
    -0.002015110
    -0.000071299
    -0.000724523
    -0.000889426
     0.000506850
    -0.001410404
     0.000249696
    -0.000000007
    -0.000152473
     0.000022747
     0.000445965
    -0.000367562
     0.000503745
    -0.000000017
    -0.001082864
     0.000390760
    -0.001757934
    -0.000646932
    -0.001569220
    -0.001298182
    -0.000024322
    -0.000768184
    -0.001039107
    -0.000336248
    -0.001939925
    -0.000000202
    -0.000853211
    -0.001215388
    -0.001990189
    -0.000659344
    -0.001147563
     0.000111786
     0.000518053
    -0.000271315
    -0.000000228
    -0.000000002
    -0.000044928
    -0.002058923
     0.000545872
     0.000484853
     0.000836268
    -0.001377239
    -0.001371957
    -0.001468544
    -0.000426551
    -0.000426456
    -0.000663095
    -0.000791358
    -0.000193887
    -0.000206036
     0.000258847
    -0.000000096
    -0.002105434
    -0.000000249
    -0.000072740
    -0.000782654
    -0.000692138
    -0.000272893
    -0.001137622
    -0.001358107
    -0.001501847
    -0.000950281
    -0.001117519
    -0.000033525
    -0.000504742
    -0.000216984
    -0.002221939
     0.000500277
    -0.000734545
    -0.000172354
    -0.000077033
    -0.001578140
    -0.002063444
    -0.000360998
    -0.000000000
    -0.000989263
     0.000210782
    -0.000598236
    -0.002616713
    -0.001174448
     0.000174728
     0.000656634
    -0.000000929
    -0.000000114
    -0.000756720
    -0.003294252
    -0.000568644
     0.000153085
    -0.001775425
    -0.000000077
    -0.001740619
    -0.001311498
    -0.000272465
    -0.000955589
     0.000193432
    -0.000000017
    -0.001514938
    -0.001822521
    -0.001035795
    -0.001505758
    -0.000832549
    -0.001790733
    -0.001548262
    -0.001244563
    -0.000830021
    -0.000238020
    -0.001430929
     0.000087531
     0.000536724
    -0.002178317
     0.000190660
    -0.002275089
    -0.000000644
    -0.000096790
    -0.000930064
    -0.000000095
    -0.001590772
    -0.000000005
    -0.000342351
     0.000511916
    -0.000189699
    -0.000254401
    -0.000338790
     0.000408991
     0.000733514
    -0.000887369
    -0.000000023
     0.000243299
    -0.001510981
     0.000398124
     0.000554730
     0.000075772
     0.000702910
     0.001617537
     0.001308843
    -0.000000008
     0.000178318
     0.001364822
     0.001372263
     0.001114215
     0.001300141
     0.001309141
     0.000067326
     0.001443529
    -0.000011768
    -0.000000240
     0.000581141
    -0.000000007
     0.001110659
     0.001026827
     0.001313523
     0.001221486
     0.001793103
     0.001399479
     0.001898185
     0.001650488
     0.001335869
     0.001223595
     0.001146264
     0.001494588
     0.001946462
     0.000001747
     0.001611077
     0.001106541
    -0.000001682
     0.001555464
    -0.000008417
     0.001358458
    -0.000013762
    -0.000000038
    -0.000007355
     0.001921867
     0.001505598
    -0.000001978
    -0.000015920
     0.001123241
     0.001377272
     0.001171238
     0.001883947
     0.001628610
     0.001612775
     0.001657683
     0.001621293
     0.001351547
     0.001353634
    -0.000010687
    -0.000004324
     0.001180053
     0.001777274
     0.001706446
     0.001694683
     0.000135690
     0.001607913
    -0.000000066
     0.000639063
     0.000647163
     0.000017298
    -0.000005099
    -0.000000018
     0.001481454
     0.000166202
    -0.000007200
     0.001402232
    -0.000000099
    -0.000000005
     0.000245973
     0.000108721
     0.000004131
     0.001633481
     0.001501854
     0.001226237
     0.001452456
     0.001198734
     0.001475056
     0.001202275
     0.001469015
     0.001183201
     0.000002738
    -0.000000098
     0.001273436
     0.000059658
    -0.000001105
     0.001239342
     0.001673627
     0.001716453
     0.002099139
     0.001656144
     0.000697664
     0.001761307
     0.001649205
     0.001633411
    -0.000001802
    -0.000000011
     0.001757533
     0.000275675
    -0.000017025
     0.001679130
     0.000562054
     0.001388081
     0.001247808
     0.001325127
     0.001757701
     0.001368172
     0.001988606
     0.001316577
     0.000670685
     0.001256026
     0.001907173
     0.001239058
     0.001344376
     0.002015512
     0.001684291
     0.001649901
     0.000768303
     0.001770352
     0.001740073
     0.001626661
     0.000523879
     0.000447105
    -0.000000367
    -0.000000007
     0.001536447
     0.001953063
     0.001656660
     0.001931085
     0.001036921
    -0.000000007
     0.000320513
     0.000781563
     0.000019966
     0.001458807
    -0.000007155
    -0.000003505
     0.001458831
    -0.000007343
    -0.000002946
     0.001037440
     0.001157587
     0.001066161
     0.001184206
     0.001413347
     0.001944615
     0.001455021
     0.001945798
     0.001546867
     0.001721539
     0.001704635
     0.001850457
     0.001756372
    -0.000001575
     0.000014121
     0.001754088
    -0.000000431
    -0.000041457
     0.001730033
     0.001709455
     0.001919531
     0.001421958
     0.001637707
     0.000937194
     0.001706260
     0.000644607
     0.001289715
     0.001599076
     0.001366109
     0.001656509
     0.001571581
     0.001322403
     0.001249318
     0.001613858
     0.001802509
     0.001978426
     0.001386007
     0.001478523
     0.000121627
    -0.000000340
     0.000020062
    -0.000000051
     0.000622916
    -0.000000001
     0.000431712
