#
# Number of atoms
#
 88
#
# The current total energy in Eh
#
  -4707.331546282232
#
# The current gradient in Eh/bohr
#
       0.000005207183
       0.000001252191
       0.000009770190
       0.000008843182
      -0.000003451728
      -0.000001457460
       0.000000151655
      -0.000007747125
       0.000007142530
       0.000002944656
      -0.000001566817
      -0.000005150500
       0.000002618032
      -0.000003659276
      -0.000005021880
      -0.000004030296
      -0.000005676282
      -0.000002748230
       0.000004544799
       0.000002389502
       0.000000753558
      -0.000000559975
      -0.000002283966
      -0.000007171954
      -0.000001933198
      -0.000000935423
       0.000005723121
      -0.000004843692
      -0.000002949615
      -0.000001849985
      -0.000004533958
       0.000004781561
      -0.000002245864
      -0.000000693978
       0.000000490187
      -0.000000692931
       0.000000038780
       0.000002649335
      -0.000000646870
      -0.000000827322
       0.000003132030
       0.000001592336
      -0.000004169177
       0.000003922981
      -0.000001262615
      -0.000003253912
       0.000002254433
       0.000003339484
       0.000001251132
      -0.000002201985
      -0.000001410041
       0.000003240006
      -0.000004003073
      -0.000004882738
      -0.000002833142
      -0.000003324513
      -0.000002281003
      -0.000001839410
      -0.000001106187
      -0.000001683153
       0.000004557063
      -0.000000203954
      -0.000000995107
       0.000001433118
       0.000000670698
       0.000004137824
       0.000001975659
       0.000000397022
       0.000001730035
      -0.000005467554
       0.000001364453
       0.000002248751
      -0.000003698460
      -0.000000519375
      -0.000001973332
      -0.000003327421
      -0.000000816573
      -0.000002257975
      -0.000001072474
      -0.000000606421
      -0.000002216700
      -0.000006769771
       0.000003044165
      -0.000003089979
       0.000001628291
       0.000002110706
      -0.000002047770
      -0.000002949911
       0.000001897159
       0.000003289208
       0.000003263674
       0.000004543997
      -0.000004124652
      -0.000004562033
      -0.000002397240
       0.000000602940
       0.000000158131
      -0.000002549218
       0.000003108404
      -0.000003741400
      -0.000001367902
       0.000002239824
       0.000000017150
       0.000003113676
      -0.000001972234
      -0.000002213361
      -0.000001956609
       0.000001715326
      -0.000001805398
      -0.000005520232
      -0.000006188219
       0.000002538407
      -0.000007326491
      -0.000000482171
      -0.000004665475
      -0.000001624959
      -0.000001933595
      -0.000000167658
      -0.000004814113
      -0.000001588524
       0.000001191604
       0.000000405008
      -0.000001603153
       0.000002364018
       0.000001734899
       0.000002242584
      -0.000001506841
       0.000005073321
      -0.000001405823
      -0.000001256770
       0.000001894528
       0.000006451496
      -0.000003843488
       0.000001789463
      -0.000006248686
       0.000002998951
       0.000003006495
      -0.000001967421
       0.000002483303
      -0.000001887841
      -0.000005158636
       0.000003651480
      -0.000004731650
       0.000005728122
       0.000000457563
      -0.000001130218
      -0.000001468787
       0.000001222346
      -0.000000204766
      -0.000000524322
      -0.000000612394
      -0.000001193976
       0.000000926447
      -0.000001538860
      -0.000000647100
      -0.000000291350
       0.000002256422
       0.000000047316
      -0.000000362372
      -0.000000422603
       0.000000225646
      -0.000000431377
      -0.000000955849
       0.000000845584
       0.000001645645
       0.000000356003
       0.000000092485
       0.000001533716
       0.000000286569
      -0.000001656509
      -0.000001819794
      -0.000001104950
      -0.000002473058
      -0.000000645496
      -0.000002206785
      -0.000000941614
      -0.000000211368
      -0.000000898396
      -0.000001687474
      -0.000000501096
      -0.000000764663
       0.000000293391
       0.000001880769
      -0.000004381055
       0.000001762470
      -0.000003070920
      -0.000002259860
       0.000003724871
      -0.000001132073
       0.000011758103
      -0.000000708071
       0.000005138920
       0.000008437462
      -0.000001896490
       0.000004548194
      -0.000002791157
       0.000001641119
      -0.000000035821
       0.000002686337
       0.000000497192
      -0.000003473691
       0.000000865284
       0.000001305126
       0.000003273552
       0.000005664295
       0.000003488664
      -0.000007688370
       0.000002567691
       0.000000665986
      -0.000000247469
       0.000000093718
       0.000000745145
       0.000000040836
       0.000000277582
       0.000001550113
       0.000003178015
       0.000004109407
       0.000001771985
       0.000001743635
       0.000000168677
       0.000001525064
       0.000002341226
       0.000010141716
       0.000001829754
      -0.000001441709
       0.000002042789
      -0.000000159825
       0.000003766193
      -0.000001366753
       0.000004656439
      -0.000000003626
       0.000000839882
      -0.000002850663
       0.000001824565
      -0.000004601835
       0.000002715267
      -0.000001802186
       0.000002460128
      -0.000001306530
      -0.000000350428
      -0.000001942749
       0.000002217436
       0.000004295386
       0.000000529785
       0.000001966018
       0.000001029694
      -0.000005113873
      -0.000001456173
       0.000003508357
      -0.000001142972
      -0.000001412513
       0.000001915945
      -0.000003170486
       0.000003337881
      -0.000000048893
      -0.000000404879
      -0.000000066889
       0.000003335266
      -0.000001720685
       0.000003696030
       0.000000236978
      -0.000000355208
       0.000002501647
       0.000001331152
#
# The atomic numbers and current coordinates in Bohr
#
  40     0.4621209    3.5855658    1.3462626 
  40    -1.0271960   -4.7881474   -2.8751249 
  40     3.2888123   -2.8639072    1.4359486 
  40    -3.8394285    1.5761184   -2.9657981 
  40     2.2541756    0.4622354   -4.5196452 
  40    -2.7443022   -1.6277160    3.1417172 
   8    -2.9163949    1.4194361    0.8026067 
   8     2.5394366   -2.6230890   -2.3070984 
   8    -0.5922112   -3.8930868    0.8523134 
   8     0.1441602    2.7909791   -2.3801804 
   8    -1.4235091   -1.1611860   -4.1787500 
   8     1.0413654    0.0098828    2.7556465 
   8    -0.8574582    4.4287793    5.1368005 
   8    -2.1106220    6.7573187    0.7615790 
   8     4.2967707    3.7078496    2.8352976 
   8     2.8644520    6.4954522   -0.8418871 
   8    -3.6747693   -7.3007547   -0.8334088 
   8    -4.6621939   -4.7197634   -4.7980206 
   8     1.3953735   -8.0251455   -2.2047986 
   8     0.5331580   -5.5520528   -6.5840631 
   8     2.9010756   -4.3891837    5.2356074 
   8     5.9670023   -0.1525384    2.9960620 
   8     3.9606694   -6.8914073    0.9282109 
   8     7.0939538   -3.0569536   -0.7070171 
   8    -7.3199535    0.5487635   -1.0097154 
   8    -4.8631877    5.4551913   -2.1419961 
   8    -6.1419908   -0.8231438   -5.4884867 
   8    -3.2478120    3.4530317   -6.5618849 
   8     0.7109835    2.5463384   -7.6368092 
   8     4.7125668    4.1261990   -3.8250653 
   8     2.7892163   -2.1505765   -7.5663090 
   8     6.5887117   -0.1142512   -3.7032879 
   8    -6.8018854   -0.5424403    3.0409001 
   8    -2.9429702    0.9795069    6.3393247 
   8    -5.0349279   -4.9956428    2.4389857 
   8    -1.1358761   -3.7971041    6.2533051 
   6    -2.0825030    3.1431791    6.6976381 
   6    -3.9795480    7.0552582   -0.6425240 
   6     5.8616300    2.1216504    3.6187252 
   6     4.2399650    6.2350084   -2.6795964 
   6    -4.8213307   -7.0071817    1.1996580 
   6    -5.9924717   -3.1251025   -5.9481138 
   6     3.0997140   -8.4435741   -0.6266945 
   6     1.9612252   -4.3233039   -8.0105324 
   6     1.0481037   -4.5798473    6.6857771 
   6     7.8268499   -1.8830271   -2.5547615 
   6    -8.0413959    0.3268699    1.2446874 
   6    -1.3999129    3.5495482   -8.0262090 
   1    -7.1699047   -3.8499130   -7.4935169 
   1     3.9114390  -10.3497282   -0.6031558 
   1     7.3003184    2.7994275    4.9464315 
   1    -4.9416510    8.8885912   -0.5555441 
   1     2.5483218   -5.2055291   -9.7856097 
   1    -1.6225612    4.5840895   -9.8049123 
   1     5.1911043    7.9015772   -3.4569728 
   1     9.6971228   -2.3133848   -3.3318560 
   1    -5.7822077   -8.6735945    1.9769781 
   1    -9.9827933    0.9349291    1.6518691 
   1    -2.4322856    4.0030400    8.5507660 
   1     1.3686849   -5.5225338    8.5035424 
  13     3.3046332   -1.2034566  -15.6724832 
  13     3.4056196    4.5658381  -13.8445099 
  13     7.9717858   -2.7763864  -12.3993412 
  13     8.0111239    2.8402687  -10.9741709 
  13    12.1898677    0.0649863   -7.9714382 
  13     8.2743507    3.1420148   -4.6216158 
  13     8.6637615    8.0405115   -8.1492700 
   1     2.6873689   -1.8475354  -18.5121548 
   1     1.5723456   -1.9601373  -13.3591376 
   1     4.8517476    6.7673753  -15.2282980 
   1     0.4514789    4.6598187  -13.3411648 
   1     3.8792874    1.9054902  -15.5598991 
   1     6.2470849   -2.1916458  -15.1022815 
   1     6.7583432   -5.2713167  -11.2824518 
   1    10.7855157   -2.4747649  -13.3327535 
   1    11.1489103    1.7130542   -5.4943848 
   1    11.1077712    2.0074035  -10.1385688 
   1    10.5067467   -2.4450831   -7.9604381 
   1    15.1658036   -0.0198492   -7.9351045 
   1     9.2876804    6.1003373   -5.7433890 
   1    10.8493405   10.0567644   -8.3557826 
   1     5.7709358    8.7943479   -7.8467696 
   1     8.9115879    5.9535089  -10.4470391 
   1     4.8146384    3.7165307  -11.1811197 
   1     6.9175355   -0.2913755  -10.8529605 
   1     8.6143910    2.9068220  -13.9145934 
   1     7.2613033    2.6156947   -7.7186059 
   1     9.3625926    3.7352500   -1.8713563 
