#
# Number of atoms
#
 88
#
# The current total energy in Eh
#
  -4708.501166902867
#
# The current gradient in Eh/bohr
#
      -0.000048856376
       0.000077862646
       0.000002565293
       0.000030049831
      -0.000080698466
       0.000003296091
       0.000021756068
      -0.000120464693
       0.000010700146
      -0.000166670852
      -0.000019211953
      -0.000022687743
       0.000028292564
      -0.000079957479
      -0.000110489415
      -0.000160625517
      -0.000104196372
       0.000062720496
      -0.000003826812
       0.000038725948
      -0.000026874558
       0.000036833652
      -0.000024274183
       0.000006570177
      -0.000019628332
      -0.000024089477
       0.000014065530
       0.000047503540
       0.000024107967
       0.000051138380
      -0.000002477854
       0.000042544734
      -0.000052479582
       0.000060093118
       0.000024776838
      -0.000003918402
       0.000014562531
       0.000006229587
      -0.000007113228
       0.000016547040
       0.000042618650
       0.000050514617
       0.000005490960
       0.000012407399
       0.000007039295
       0.000018742695
       0.000006512626
      -0.000022588025
       0.000021555645
       0.000002962676
       0.000038485123
      -0.000088146426
       0.000044864475
      -0.000012657294
      -0.000033399834
      -0.000049616257
      -0.000018565363
       0.000020104474
       0.000054141658
       0.000068852240
      -0.000013638563
      -0.000024001443
       0.000025553252
      -0.000017233169
       0.000022083827
       0.000012963101
       0.000051255568
       0.000041400111
       0.000045880709
      -0.000001673531
      -0.000029900128
      -0.000010744135
      -0.000012250389
       0.000019545978
      -0.000002023334
       0.000001013564
      -0.000006213771
       0.000007622270
       0.000018759843
       0.000036813244
       0.000046808535
       0.000043326133
       0.000018674614
      -0.000029515264
       0.000029718638
      -0.000012241156
      -0.000032902511
       0.000017067621
       0.000025879835
       0.000027558593
      -0.000038013549
      -0.000042849999
       0.000017791092
       0.000005402289
      -0.000022198240
      -0.000001643842
       0.000004729427
      -0.000008489435
       0.000046222789
      -0.000000413974
       0.000065955877
       0.000039457972
       0.000039331724
       0.000070727184
      -0.000001869583
       0.000004956664
      -0.000043010263
       0.000009391637
      -0.000005193684
      -0.000021980928
       0.000010205392
       0.000005103774
      -0.000067912198
      -0.000027340444
       0.000012445690
      -0.000007255931
      -0.000005450845
      -0.000025347209
       0.000050171706
       0.000093569527
       0.000039847517
      -0.000017006253
      -0.000083986033
       0.000026912635
      -0.000082907900
      -0.000021782392
      -0.000031275419
       0.000084289263
      -0.000007580462
       0.000009449624
      -0.000048587200
      -0.000069973529
       0.000011375418
       0.000022019931
      -0.000019698884
      -0.000028974036
       0.000038586999
      -0.000011449381
       0.000054697512
       0.000002121233
      -0.000052569493
      -0.000058019719
       0.000000213940
       0.000029207883
      -0.000002416100
       0.000007478766
      -0.000008647259
       0.000007914385
       0.000000647820
      -0.000003397048
      -0.000001556014
       0.000010843765
      -0.000006000468
      -0.000000812240
      -0.000001814081
       0.000003473984
       0.000020075196
       0.000022292354
       0.000000996081
       0.000017766434
      -0.000006167101
      -0.000009262911
       0.000018612909
      -0.000012476832
      -0.000031734131
      -0.000002568125
       0.000015210196
      -0.000008530392
       0.000001265613
       0.000008281935
       0.000014699975
       0.000000886566
      -0.000009575812
       0.000012909081
       0.000001080348
      -0.000004606527
      -0.000001542133
      -0.000001599850
       0.000004875886
       0.000006977618
      -0.000014185182
      -0.000030068423
      -0.000090947466
       0.000135325303
      -0.000029770938
      -0.000043457694
       0.000051814552
       0.000069055968
      -0.000134696367
      -0.000101878246
      -0.000057679662
       0.000005085282
      -0.000045571054
       0.000095296302
       0.000076372527
      -0.000083278211
       0.000072257398
       0.000044028060
       0.000070880476
      -0.000061537521
       0.000021773281
       0.000003407407
      -0.000017626461
       0.000043791260
       0.000037827137
       0.000043615960
      -0.000021327016
       0.000016626544
       0.000023323345
      -0.000017477981
      -0.000092944173
      -0.000013066301
       0.000042400214
      -0.000039439981
       0.000000538818
       0.000099200997
      -0.000016905295
       0.000003205375
       0.000017510446
      -0.000032935086
      -0.000057869573
       0.000061007888
       0.000032491248
      -0.000015452838
      -0.000015967129
       0.000032901909
      -0.000008781704
      -0.000040570817
       0.000031867978
      -0.000116405594
       0.000011865044
       0.000006821715
       0.000045756470
      -0.000051194871
       0.000021878268
       0.000012719872
      -0.000030514845
      -0.000013875004
       0.000001821100
      -0.000035770834
      -0.000027755738
       0.000015420436
      -0.000017550845
      -0.000020285609
       0.000004532404
      -0.000032535240
       0.000043372421
       0.000081586760
       0.000047718970
      -0.000009627731
       0.000030724963
       0.000010146777
      -0.000031729066
       0.000007730568
      -0.000015786338
       0.000004024977
      -0.000055286182
       0.000044172334
       0.000024965377
      -0.000005572991
      -0.000075434065
       0.000016295495
      -0.000012633130
       0.000055939582
#
# The atomic numbers and current coordinates in Bohr
#
  40     0.5510583    3.6405480    1.7144179 
  40    -1.1720430   -4.6339035   -3.0417866 
  40     3.3047460   -2.9799118    1.4418645 
  40    -3.9155404    1.9100639   -2.7707896 
  40     2.3100564    0.7486729   -4.4422585 
  40    -2.8531148   -1.7198173    3.2631785 
   8    -2.9532189    1.5125154    1.0427330 
   8     2.5158416   -2.5206697   -2.3557988 
   8    -0.6886131   -3.9149150    0.7956934 
   8     0.1796446    3.0141995   -2.1185384 
   8    -1.4998316   -0.8613301   -4.1499735 
   8     1.0453236   -0.0951877    2.9356724 
   8    -0.8645089    4.3129038    5.5973375 
   8    -1.9833572    6.9734726    1.2781219 
   8     4.4267129    3.6107773    3.3551332 
   8     3.1234898    6.5812801   -0.3509588 
   8    -3.9487174   -7.2201037   -1.0855840 
   8    -4.8596231   -4.4203303   -5.0369802 
   8     1.2298504   -8.0235035   -2.5141944 
   8     0.4318948   -5.2709651   -6.8454856 
   8     2.8570764   -4.7750284    5.2083539 
   8     6.0621067   -0.3465836    3.2342526 
   8     3.9144985   -7.0664101    0.6813561 
   8     7.1724250   -3.0765759   -0.7085048 
   8    -7.5187497    0.9497335   -0.8259637 
   8    -4.8045892    5.8689751   -1.7492087 
   8    -6.3320068   -0.3999509   -5.4122659 
   8    -3.3124119    3.9936052   -6.3579200 
   8     0.7058320    3.0660888   -7.4834031 
   8     4.8543065    4.3670951   -3.6122819 
   8     2.6937118   -1.7536645   -7.7193227 
   8     6.7200235    0.0377244   -3.6368099 
   8    -6.9787070   -0.5671182    3.1616020 
   8    -3.0364841    0.7780586    6.6548663 
   8    -5.2196717   -5.1074612    2.4379908 
   8    -1.2118939   -4.0771002    6.3364622 
   6    -2.1397464    2.9513184    7.1107414 
   6    -3.8627129    7.3909028   -0.1480366 
   6     5.9784455    1.9125951    4.0354875 
   6     4.5057432    6.3989042   -2.2469592 
   6    -5.0780456   -7.0460655    1.0147019 
   6    -6.2181660   -2.7030883   -6.0443575 
   6     2.9791364   -8.5457298   -0.9584379 
   6     1.8424769   -3.9403870   -8.2590549 
   6     0.9848275   -4.9681796    6.6966735 
   6     7.9628898   -1.7692300   -2.4962008 
   6    -8.2342765    0.5035370    1.4345342 
   6    -1.4190826    4.1375086   -7.8214267 
   1    -7.4769058   -3.3184110   -7.6500786 
   1     3.7768692  -10.5180703   -1.0395503 
   1     7.4528033    2.4788207    5.4641854 
   1    -4.7936283    9.2986182    0.0202694 
   1     2.3821180   -4.7378808  -10.1542240 
   1    -1.6328375    5.3066869   -9.5835641 
   1     5.5959355    8.1144821   -2.8695392 
   1     9.9366235   -2.1164639   -3.2099873 
   1    -6.1056533   -8.7871676    1.6921170 
   1   -10.2199920    1.1046939    1.9266276 
   1    -2.5084727    3.7600684    9.0460612 
   1     1.3059592   -6.0358119    8.5111026 
  13     4.5283843   -2.4238121  -16.1782270 
  13     2.8151358    3.5089409  -14.3451439 
  13     8.6604581   -2.7700407  -11.7872589 
  13     7.6652724    3.0276336  -11.2517883 
  13    11.9897266    0.0750734   -8.6031709 
  13     8.4971369    3.3375198   -4.7679776 
  13     8.2924498    8.3829770   -8.3520633 
   1     4.5156360   -2.8169013  -19.2066305 
   1     2.6543382   -3.9091471  -14.2577845 
   1     3.7248312    5.8502565  -16.0797307 
   1    -0.1390125    2.9191989  -13.7351947 
   1     4.0134849    0.7643701  -15.6665306 
   1     7.5459504   -2.6940923  -15.0717504 
   1     7.8036948   -5.5723052  -10.9286181 
   1    11.5579719   -1.7671038  -12.3897147 
   1    11.2794353    1.7828333   -5.8352754 
   1    10.9550154    2.5192997  -10.3635036 
   1     9.8440294   -2.1837119   -8.1235415 
   1    14.9727061   -0.5204150   -8.5420051 
   1     9.4035330    6.3703790   -6.0629960 
   1    10.4275205   10.5076882   -8.8742858 
   1     5.3860863    9.0723917   -7.6245058 
   1     8.2336889    6.3225689  -10.8131101 
   1     4.3291125    3.5543990  -11.4802659 
   1     6.7658904   -0.3033911  -11.0753516 
   1     8.3615278    3.0282424  -14.2495893 
   1     7.0500869    2.7766918   -7.8092557 
   1     9.6928651    3.9990952   -2.0006096 
