#
# Number of atoms
#
 80
#
# The current total energy in Eh
#
  -4219.561588568950
#
# The current gradient in Eh/bohr
#
      -0.000007690843
      -0.000017195412
      -0.000019706463
      -0.000013501940
      -0.000011952969
       0.000008582624
      -0.000007941088
       0.000011258814
       0.000007919941
      -0.000007742437
       0.000000984812
      -0.000001488261
       0.000012249252
      -0.000006789615
      -0.000008862476
       0.000010118147
       0.000006849861
       0.000000555952
       0.000000431902
      -0.000004111875
       0.000014062125
       0.000006098240
       0.000001211960
       0.000000941867
      -0.000005121499
      -0.000007945938
       0.000007266663
       0.000000955211
       0.000006992759
      -0.000007000659
      -0.000012490248
       0.000005052961
      -0.000001553365
      -0.000004306487
       0.000006096529
       0.000002180967
       0.000000696163
       0.000000658381
       0.000002988509
       0.000004873662
      -0.000004872146
       0.000009087353
       0.000005110974
      -0.000000032436
       0.000002679139
       0.000000713857
       0.000004261838
      -0.000012596721
       0.000001086937
       0.000000539126
       0.000005519993
       0.000000837747
      -0.000005696631
       0.000001435295
      -0.000005315483
      -0.000001399029
       0.000001146470
      -0.000002019379
      -0.000001250802
      -0.000001115405
       0.000000456630
       0.000002671171
       0.000002716193
       0.000009532780
      -0.000002465652
      -0.000002816149
      -0.000000158445
      -0.000006488168
       0.000002646840
       0.000004233206
       0.000001572120
      -0.000002547128
      -0.000000004753
      -0.000005118894
       0.000001212629
       0.000003952145
      -0.000002388490
       0.000003075291
      -0.000003345696
      -0.000004382801
       0.000003717413
      -0.000007969874
       0.000001962155
      -0.000003595585
      -0.000007511579
       0.000001022981
      -0.000004148037
      -0.000001939010
      -0.000001547203
      -0.000009704949
      -0.000004337618
      -0.000004000941
       0.000002145336
      -0.000002460609
      -0.000000032436
      -0.000005622095
      -0.000002729535
      -0.000001262631
       0.000004248369
       0.000001964665
      -0.000005415716
       0.000000086460
       0.000007086415
       0.000001663975
       0.000010914185
      -0.000002730785
      -0.000003468256
       0.000005332815
       0.000007323735
       0.000009168410
       0.000002318806
      -0.000003955527
      -0.000003669203
      -0.000002943136
      -0.000000816204
       0.000005693916
      -0.000002902553
      -0.000005997201
       0.000002739934
       0.000010314575
      -0.000002967873
      -0.000002394725
       0.000007935849
      -0.000005578034
      -0.000005136139
       0.000006542246
       0.000003402446
       0.000003706592
       0.000006664838
      -0.000005279862
      -0.000004582354
      -0.000000411492
       0.000019840689
       0.000004621207
       0.000000892766
      -0.000003126700
       0.000002125146
      -0.000004555858
       0.000001105405
      -0.000005715287
       0.000020829718
      -0.000008410125
      -0.000006536289
       0.000002460209
      -0.000005874985
      -0.000007428370
       0.000005907276
      -0.000000238607
      -0.000000621596
      -0.000000321613
       0.000003034628
       0.000004442828
      -0.000003566772
      -0.000004837053
      -0.000002748542
      -0.000002746595
      -0.000005411843
      -0.000004598367
      -0.000000767303
      -0.000003932932
      -0.000005266097
      -0.000001944809
       0.000001827464
      -0.000004400314
      -0.000011563415
      -0.000000613863
       0.000001196547
      -0.000004283171
       0.000000830868
      -0.000002141488
       0.000007633169
      -0.000000599775
      -0.000000128226
       0.000001811780
       0.000003782073
       0.000001099472
       0.000002990375
      -0.000001291304
       0.000002752408
       0.000004419352
      -0.000000502032
      -0.000004321295
      -0.000001328130
       0.000001178981
       0.000001405511
      -0.000005239846
       0.000005125362
       0.000005910106
      -0.000004922161
       0.000004103396
       0.000005584524
       0.000000610644
       0.000005143535
       0.000004122619
       0.000004172014
       0.000000081017
       0.000002367492
      -0.000005773149
       0.000004791193
       0.000000470427
       0.000000878781
       0.000006292106
       0.000002661480
       0.000001036794
       0.000004752491
       0.000009857560
      -0.000004530057
       0.000003817278
      -0.000003740023
      -0.000000385816
       0.000004681201
       0.000007919199
      -0.000009662819
       0.000002353202
       0.000005071909
       0.000001931156
      -0.000003896612
       0.000008067123
      -0.000003541717
       0.000005854910
       0.000007744343
       0.000002444989
       0.000005553824
       0.000004223405
      -0.000007797698
       0.000005312559
       0.000006385090
      -0.000006203217
      -0.000009748733
      -0.000007758040
      -0.000011018985
       0.000000503427
      -0.000000142281
      -0.000006022217
       0.000001235964
       0.000005379389
      -0.000003294732
       0.000000070984
       0.000001630577
      -0.000005773097
#
# The atomic numbers and current coordinates in Bohr
#
  40    -0.3924427    3.3805717    2.6845684 
  40     0.5709115   -4.0180259   -3.0900560 
  40     3.1071306   -1.7542890    2.2066124 
  40    -3.6902075    1.5294145   -3.2208997 
  40     3.4266816    1.5216847   -3.1517088 
  40    -3.1954560   -2.1615492    2.7588010 
   8    -3.0318433    1.1335429    0.4835534 
   8     3.6655830   -2.0556141   -1.8526470 
   8    -0.1814340   -3.3187289    0.6216461 
   8     2.3669587    1.8843610    0.5458844 
   8    -0.2851333   -0.0569991   -3.6739577 
   8    -0.1796887   -0.0937142    4.1180777 
   8    -3.3888647    3.8149292    5.5590336 
   8    -2.6760482    6.1796224    0.7339662 
   8     2.3848338    4.0878190    5.5245525 
   8     2.1501274    7.1631273    1.0395761 
   8    -2.1963502   -7.0009624   -2.1462814 
   8    -2.3497877   -4.0879168   -6.0890244 
   8     2.9905115   -7.0943695   -1.9627841 
   8     2.8284844   -4.0611871   -6.5652442 
   8     2.2766259   -4.2627770    5.5103063 
   8     4.6419055    0.5258932    5.4495707 
   8     4.7954253   -5.5759872    1.5426790 
   8     7.1858719   -0.8266258    1.5198326 
   8    -7.1114555   -0.3795706   -2.3141476 
   8    -5.5916229    4.9719522   -2.0119689 
   8    -4.5679258   -0.5539257   -6.5963259 
   8    -2.2118657    4.3963373   -5.6347398 
   8     1.9172087    3.9160282   -6.2541457 
   8     4.2526224    5.6097580   -2.2614721 
   8     4.7781973   -0.3346484   -6.5943136 
   8     7.3276722    1.4839567   -2.0090617 
   8    -7.2542385   -1.6390081    1.6978369 
   8    -4.9471288   -0.0818326    5.9060786 
   8    -4.5498149   -5.6980758    1.1025879 
   8    -1.9217490   -4.6910977    5.6661251 
   6    -4.6696500    2.1310803    6.6556917 
   6    -4.7497668    6.4541242   -0.3743191 
   6     4.0444005    2.5942608    6.3737542 
   6     3.8726595    7.2390511   -0.6532069 
   6    -3.7582321   -7.3347811   -0.4158040 
   6    -3.7583764   -2.6670701   -7.3191918 
   6     4.5544611   -7.1653345   -0.1688721 
   6     4.4122068   -2.5231856   -7.4093323 
   6     0.2897485   -5.0419867    6.4843747 
   6     8.3219215    0.2856848   -0.2046528 
   6    -8.2602313   -0.9773264   -0.3047679 
   6    -0.1939396    4.7227381   -6.8608561 
   1    -4.3763780   -3.3054046   -9.1902219 
   1     5.8073942   -8.8158293   -0.1129466 
   1     5.0461779    3.2186561    8.0760131 
   1    -5.8859633    8.1127785    0.1132819 
   1     5.5614597   -3.1364588   -9.0202865 
   1    -0.3391204    5.8425366   -8.5967806 
   1     5.0788630    8.9270950   -0.6662156 
   1    10.3937393    0.2546978   -0.1572493 
   1    -4.5548268   -9.2396547   -0.2256878 
   1   -10.3291771   -0.9169940   -0.3769362 
   1    -5.6445382    2.6807380    8.3963855 
   1     0.4565931   -6.1663557    8.2173018 
  13    -5.7319559    8.7665111    7.2513401 
  13    -7.1878886   12.4548430   11.5606397 
   1    -4.8715278   14.6139882   11.6359923 
   1    -9.7750612   13.9290902   11.5630788 
   1    -6.6324600   11.5655549    8.5612241 
   1    -5.6337199    9.4624851    4.3616170 
   1    -2.8984911    8.7098811    8.6175657 
   1    -6.4534961   10.1792980   13.3449141 
  13    -1.8451246   14.3484385   12.7464687 
   1    -1.1487668   11.6708947   11.3349280 
   1    -0.4491856   16.6714403   11.4983488 
   1    -7.4499804    6.6949076    8.5318650 
  13    -0.1760659   10.3819234    8.3126816 
   1    -0.1302279    8.6153001    5.2102063 
   1     2.1883472    8.9615555    9.4262470 
   1    -2.0567345   13.9147841   15.6942431 
  13     1.1966196   10.1664375    2.8698957 
   1     3.8320220   11.3483088    3.6902868 
   1    -0.5021663   12.9305917    6.7484377 
   1    -0.7179483   11.7004326    1.1579963 
