#
# Number of atoms
#
 68
#
# The current total energy in Eh
#
  -3487.826144441904
#
# The current gradient in Eh/bohr
#
      -0.000005861582
       0.000008073355
      -0.000004819444
       0.000011594664
       0.000008509987
      -0.000000541145
       0.000009862806
       0.000008053976
       0.000006429076
       0.000009846841
      -0.000004889087
       0.000011200138
      -0.000014021046
      -0.000004772910
       0.000012006567
       0.000000283082
      -0.000007130502
      -0.000010798582
       0.000002256908
      -0.000001239817
      -0.000006616295
      -0.000003175166
      -0.000002656157
      -0.000009547466
      -0.000005544598
       0.000009328292
       0.000010783486
       0.000008692144
      -0.000005947354
      -0.000009820373
       0.000009261580
       0.000001681050
      -0.000000011367
      -0.000008768719
      -0.000008760371
      -0.000002402397
       0.000003964323
       0.000005512216
       0.000001475698
       0.000007691999
       0.000001060315
      -0.000001126420
       0.000008410331
       0.000002751272
      -0.000011138014
      -0.000006558211
      -0.000000688153
       0.000000837717
       0.000001012143
      -0.000002835817
       0.000003962827
      -0.000012552350
      -0.000002148542
      -0.000000160399
      -0.000002388979
       0.000005560031
       0.000002085314
      -0.000004848425
       0.000001675210
       0.000005259003
      -0.000004617874
       0.000002023225
      -0.000000775949
      -0.000003159261
      -0.000001381881
      -0.000010625195
      -0.000007334480
       0.000004092056
       0.000001370639
      -0.000001316869
       0.000000225988
      -0.000001308102
      -0.000001666681
       0.000003536554
       0.000002798322
       0.000003661680
       0.000000844119
      -0.000002594233
      -0.000010367844
      -0.000003791257
       0.000006679118
      -0.000002046068
      -0.000003777149
       0.000003900312
      -0.000003415393
       0.000002206952
      -0.000002008212
       0.000009210562
       0.000002366782
       0.000002556444
      -0.000004734692
      -0.000001485837
       0.000004475160
       0.000004650390
      -0.000007511369
      -0.000015755162
       0.000006450150
       0.000002413411
       0.000004715464
       0.000004968780
       0.000006346450
       0.000002398022
       0.000007378504
       0.000009158399
       0.000004097072
       0.000000386641
       0.000004906066
       0.000001685823
      -0.000002797910
       0.000003536188
       0.000002532859
      -0.000000226340
       0.000004814553
      -0.000003229309
       0.000004828855
       0.000001424642
       0.000008127651
       0.000004277296
       0.000003049555
      -0.000004144561
      -0.000009372433
      -0.000003574250
       0.000004055966
       0.000001548844
      -0.000002550256
      -0.000000838831
       0.000002706370
      -0.000007667841
       0.000004781958
       0.000004949474
      -0.000004847956
      -0.000005716885
       0.000000891584
      -0.000000552763
       0.000008309784
      -0.000000114684
       0.000000670041
       0.000001081262
      -0.000008562845
       0.000005448597
      -0.000004279889
       0.000009547030
      -0.000000282686
      -0.000008721713
      -0.000001495120
      -0.000001265445
       0.000001247053
      -0.000001865449
      -0.000000105423
       0.000002340167
       0.000000859796
       0.000002777935
      -0.000001035011
       0.000002202470
       0.000001310713
      -0.000003146916
      -0.000002832589
      -0.000004759965
       0.000001086729
      -0.000002936296
      -0.000002267313
      -0.000002013232
       0.000003591496
      -0.000004979739
      -0.000003334488
       0.000000535030
      -0.000000702408
      -0.000000495731
      -0.000003161328
       0.000002708860
       0.000002562243
       0.000000181472
       0.000001828125
       0.000001872881
       0.000002155908
       0.000005223553
      -0.000000631775
      -0.000000004418
       0.000003943341
       0.000002270104
       0.000000821757
       0.000003256484
       0.000006592632
       0.000003672962
       0.000004419107
       0.000008985646
      -0.000001706919
      -0.000009372941
      -0.000010463529
      -0.000002480180
      -0.000003654856
       0.000001806500
      -0.000003735257
      -0.000006933518
       0.000006703380
       0.000002263497
      -0.000007200186
      -0.000005878739
      -0.000006703662
      -0.000006478374
      -0.000004372392
      -0.000004243683
      -0.000008525323
      -0.000004721246
#
# The atomic numbers and current coordinates in Bohr
#
  40     0.1648735    3.6952332    2.2436205 
  40    -0.1203149   -4.5577453   -2.1905611 
  40     2.8295032   -2.6037712    3.1953202 
  40    -2.9140826    1.9238983   -3.0857030 
  40     3.2948523    0.7337791   -2.7637196 
  40    -3.4973990   -1.5069264    3.0114346 
   8    -2.9607091    1.5761376    0.7271499 
   8     3.1368272   -2.4077394   -0.6229594 
   8    -0.7651602   -3.7610175    1.5037716 
   8     0.6693049    3.3139515   -1.6583551 
   8    -0.2431620   -0.9133016   -3.4509741 
   8     0.1880596    0.1456914    3.7282945 
   8    -2.4571929    4.6069359    5.2893671 
   8    -1.9414008    7.0257076    0.9480582 
   8     2.7620698    3.8471543    5.6146360 
   8     3.4202869    6.5235362    1.4885320 
   8    -3.5498932   -6.6678119   -1.2415029 
   8    -2.6225041   -4.6465937   -5.5453112 
   8     1.8218120   -7.8861754   -0.7818844 
   8     2.6353978   -5.3672328   -5.1557988 
   8     1.3054024   -4.2679148    6.6409452 
   8     4.5791562    0.0225200    5.8616460 
   8     3.6282158   -6.6594529    2.8173056 
   8     7.0590810   -2.7403306    2.6122891 
   8    -6.9827014    1.6931251   -2.1461670 
   8    -3.8476799    5.9029620   -2.6420616 
   8    -4.6459261   -0.9307389   -5.5488757 
   8    -1.4834706    3.4041071   -6.6309404 
   8     2.6532430    2.6331957   -6.4318562 
   8     4.6506709    2.6418752    0.7711439 
   8     4.9385427   -1.8749194   -5.5714835 
   8     8.0080636   -0.9472760   -1.0577635 
   8    -7.1978101   -0.7768394    1.2803923 
   8    -4.8444335    1.1818937    5.8195852 
   8    -5.4014350   -5.1704664    2.2500316 
   8    -2.8196648   -3.4355131    6.5939693 
   6    -4.1756734    3.3870562    6.3480294 
   6    -3.2208211    7.4701622   -0.9834330 
   6     4.0406871    2.1821241    6.6860618 
   6     5.0913487    5.0283785    0.8758195 
   6    -4.9713890   -6.8437359    0.6499665 
   6    -4.0364787   -3.0177425   -6.4959228 
   6     3.0742832   -8.2702669    1.1888876 
   6     4.4071519   -4.1213197   -6.0927518 
   6    -0.8639565   -4.3233279    7.5739393 
   6     8.5711506   -2.1346416    0.9428399 
   6    -8.1118226    0.7038048   -0.3285225 
   6     0.7290396    3.5157456   -7.4682511 
   1    -4.8676134   -3.4723869   -8.3409164 
   1     3.7477937  -10.2038843    1.5059911 
   1     4.8235093    2.6683287    8.5452266 
   1    -3.8724427    9.4191175   -1.2491159 
   1     5.5996161   -5.0628143   -7.5004840 
   1     0.9914743    4.4713721   -9.2879876 
   1     6.9966968    5.6902120    0.4036763 
   1    10.5625085   -2.6520692    1.2061003 
   1    -5.9661351   -8.6473490    0.8914157 
   1   -10.1291941    1.1448864   -0.1352080 
   1    -5.1952724    4.3361308    7.8814367 
   1    -1.0685580   -5.2363620    9.4222888 
  13    11.1171315   -1.1717990   -7.9735500 
  13     9.5287868    0.8406587   -3.6928928 
   1     9.8520524    1.5756108   -7.0933821 
   1     6.8894882    2.5064148   -3.9269358 
   1    10.7185085   -2.0418371   -4.9078757 
   1    14.0487555   -0.8632724   -8.4410467 
   1     9.3027045   -2.8075367   -9.6944874 
   1    11.8589801    2.3721637   -2.6134243 
