Corrected dielectric energy   =     -0.024666276
Total C-PCM charge            =     -0.000000000
C-PCM corrected charges:
    -0.000007092
     0.000000224
    -0.000000178
    -0.000008845
     0.000000000
    -0.000034708
     0.000000000
    -0.000001921
     0.000001127
    -0.000069947
    -0.000000421
    -0.002946690
    -0.000001212
     0.000048483
     0.000011681
     0.000001582
    -0.000765451
    -0.000005307
     0.000000014
    -0.003938223
    -0.000000052
    -0.004120016
    -0.000007964
     0.000000006
     0.000000000
     0.000000375
     0.000000000
     0.000019845
    -0.004353339
    -0.002775953
    -0.000000016
    -0.000002363
     0.000000010
    -0.000000268
    -0.002637530
    -0.000000076
     0.000000002
    -0.000000874
     0.000000001
    -0.000978778
     0.000000003
    -0.000021018
     0.000000779
    -0.000000211
    -0.000000003
     0.000000965
    -0.002930784
    -0.000084138
    -0.000007261
    -0.000000003
    -0.000001138
    -0.000086329
    -0.003513512
    -0.000019802
    -0.002809644
    -0.000080431
     0.000000091
    -0.000859825
    -0.000010466
    -0.000000003
    -0.000295661
    -0.000001855
    -0.004628592
     0.000000674
    -0.000144579
    -0.004372884
     0.000022107
     0.000000033
     0.000000000
    -0.000014207
     0.000000001
     0.000166785
    -0.000000141
    -0.003363003
    -0.004445229
     0.000000066
    -0.009546427
    -0.000278300
     0.000000013
    -0.004093929
    -0.000000017
    -0.000005751
    -0.000027351
    -0.000017935
     0.000000001
    -0.000020681
    -0.004660246
    -0.000003013
     0.000000039
    -0.000964467
     0.000000426
    -0.003807725
     0.000001934
    -0.000000004
    -0.001735210
     0.000000002
     0.000000000
     0.000004885
     0.000002861
    -0.002175006
     0.000002909
     0.000000000
     0.000019757
     0.000000000
     0.000000141
     0.000003280
     0.000000035
     0.000000001
    -0.000183772
     0.000000122
    -0.003793143
    -0.000004010
    -0.000871027
    -0.000000000
    -0.000000125
    -0.000000021
    -0.004093131
    -0.000001564
    -0.000001445
    -0.008269446
     0.000000921
    -0.000009830
    -0.000006867
     0.000000022
    -0.000000123
    -0.004744446
     0.000000000
    -0.001113829
     0.000077403
    -0.003543196
     0.000011682
    -0.000001143
    -0.000000004
     0.000000000
    -0.004250651
    -0.001216084
    -0.000000051
     0.000000001
    -0.003825071
     0.000000002
     0.000001712
     0.000000016
     0.000000126
     0.000000000
     0.000000025
    -0.000058494
    -0.000584140
     0.000000000
     0.000000112
    -0.000000003
     0.000000000
    -0.000000003
    -0.003872804
    -0.000267388
     0.000000002
    -0.004164486
    -0.003500445
    -0.000009062
    -0.000000002
    -0.000007391
    -0.001097629
     0.000000003
    -0.000250056
     0.000000005
    -0.000000000
     0.000000001
    -0.000343412
    -0.000000047
    -0.000321999
    -0.001786223
     0.000000000
    -0.000000042
    -0.000000161
    -0.000000022
    -0.000000003
     0.000000005
     0.000003157
    -0.000096826
    -0.000002341
     0.000000006
    -0.002787549
     0.000011870
     0.000000121
    -0.003049219
     0.000021702
    -0.000004343
    -0.000000035
    -0.000004056
    -0.000485243
    -0.001108874
    -0.000506231
     0.000003839
     0.000000049
     0.000000000
    -0.000021026
    -0.000003038
     0.000018891
     0.000014834
    -0.000020857
    -0.000001670
    -0.000000000
     0.000000017
    -0.003974537
    -0.000881223
    -0.000052854
    -0.004183259
     0.000001128
    -0.003330497
     0.000000000
    -0.003863160
     0.000004337
     0.000000002
    -0.000000003
     0.000000103
    -0.002556711
    -0.000243906
     0.000000071
    -0.006002254
     0.000192993
     0.000000001
    -0.000072513
     0.000000039
     0.000000002
    -0.003815931
    -0.000000692
    -0.000000000
     0.000000009
    -0.000085045
    -0.000000470
    -0.000000023
     0.000000000
    -0.000017204
    -0.000002435
    -0.002998667
     0.000000001
    -0.004592147
    -0.000011124
     0.000000003
     0.000000002
     0.000023667
    -0.000101580
    -0.000000036
    -0.000000002
    -0.000000001
    -0.000033271
     0.000000001
     0.000000070
    -0.000214481
     0.000000073
     0.000012905
    -0.001539951
    -0.003810761
     0.000001250
     0.002239943
     0.000018330
     0.002681841
    -0.000000030
    -0.000000075
    -0.000000121
    -0.000000142
    -0.000000137
     0.000955381
     0.001996894
    -0.000008822
     0.000820334
     0.000000016
    -0.000771118
     0.001509577
    -0.000001339
     0.002604501
    -0.000000287
     0.000000823
     0.002878929
    -0.000000001
    -0.000022297
     0.000000188
     0.001113051
     0.003079585
    -0.000000142
     0.000013427
    -0.000024077
     0.000000021
     0.001650347
    -0.000007113
     0.001952559
     0.000140525
     0.001656861
     0.000000002
    -0.000010247
     0.002073196
    -0.000000093
     0.000080386
    -0.000003853
    -0.000000002
     0.000011506
     0.000000558
     0.001182926
    -0.000000374
     0.002244588
     0.002116970
     0.002700841
    -0.000000047
    -0.000000000
    -0.000000624
     0.000868323
     0.002383045
    -0.000000003
     0.001092074
     0.001361445
     0.002714807
     0.000371857
     0.002898145
    -0.000000121
     0.000000042
     0.002890651
     0.000000000
    -0.000004923
     0.001234804
    -0.000000000
     0.002258399
     0.000055689
     0.001532421
     0.002660276
     0.003010545
     0.002600153
    -0.000000046
    -0.000000002
    -0.000001195
     0.002448919
    -0.000000000
     0.000829571
    -0.000000079
    -0.000004960
     0.001736931
    -0.000003198
    -0.000048021
    -0.000000076
     0.001293755
     0.001208422
     0.001872593
     0.000070057
     0.001493932
    -0.000000013
    -0.000000299
     0.001021799
     0.000350500
    -0.000000033
    -0.000140203
     0.000922398
     0.001737844
    -0.000005704
    -0.000000426
    -0.000000005
     0.000146264
     0.002037158
     0.001579840
     0.001483071
    -0.000000022
    -0.000010317
    -0.000000007
     0.001788525
     0.001600826
    -0.000000697
     0.001340487
    -0.000012296
    -0.000000581
     0.000857191
     0.001999603
     0.002489461
    -0.000077676
    -0.000902061
     0.000334693
     0.002339558
    -0.000000082
     0.000256882
     0.001151938
     0.001653622
    -0.000014774
     0.000009070
     0.001656546
     0.002693024
     0.001481523
     0.001266820
    -0.000000466
     0.002383635
     0.000108430
    -0.000000011
     0.001180133
    -0.000000743
     0.002275541
     0.002070410
    -0.000000002
     0.000525773
     0.002477061
    -0.000000066
     0.002139021
    -0.000033521
     0.000000000
     0.002372985
     0.000639323
    -0.000019660
     0.001478338
     0.001778620
     0.000000027
     0.000378137
    -0.000005988
    -0.000000000
     0.001826264
     0.001848424
     0.001765852
     0.001897970
     0.001723201
     0.002125334
     0.000100886
    -0.000021227
     0.002300386
     0.000288625
     0.002473187
     0.002106962
     0.000000001
     0.001691654
    -0.000007021
     0.000006934
     0.000000001
    -0.000014908
    -0.000274025
    -0.000000020
    -0.000020665
     0.001882358
     0.000970228
     0.000071934
     0.000001534
     0.001649191
     0.001582983
    -0.000962670
     0.002112582
     0.000010155
     0.002671054
     0.002329072
     0.000017474
     0.002336819
    -0.000003999
     0.001865983
     0.001949517
    -0.000021995
     0.002341733
    -0.000020419
     0.000051026
     0.001429351
    -0.000915397
     0.002137358
     0.000001375
    -0.000040361
     0.002439033
     0.002450822
     0.000539916
     0.002787228
     0.002213473
     0.000928132
    -0.000015760
    -0.000003936
    -0.000037325
     0.000005204
     0.001159326
     0.002411858
     0.002462194
     0.001614844
    -0.000016991
     0.000516521
     0.000374783
     0.001105856
     0.001334454
     0.000003158
     0.000000271
     0.001312746
     0.000247364
    -0.000008964
    -0.000000032
    -0.000000001
     0.001600866
    -0.000000123
    -0.000028449
     0.002279764
     0.002026129
     0.002571394
     0.002377664
     0.002241415
     0.002538406
     0.001200417
     0.001577403
     0.000567675
     0.000000208
     0.000434159
    -0.000000007
    -0.000060283
     0.001359068
    -0.000026855
     0.002093008
    -0.000000004
     0.000000001
     0.002298711
    -0.000005988
     0.001585149
     0.000762605
     0.002649067
     0.002254055
     0.002171957
    -0.000004425
     0.000225266
     0.002864846
    -0.000000533
     0.001715503
     0.001361173
     0.000011147
     0.000259503
     0.002692945
     0.000299663
     0.002018918
     0.002734314
    -0.000000080
     0.001485949
     0.002450796
     0.002256333
     0.000044229
    -0.000211079
    -0.000000003
     0.000000031
    -0.000195308
    -0.000013623
     0.002484695
    -0.000000004
     0.002325379
     0.002581428
    -0.000004147
     0.000179371
     0.000950179
    -0.000000003
    -0.000003043
     0.001888465
     0.001688822
     0.001975814
     0.000859267
    -0.000000009
     0.002389285
     0.000749091
    -0.000015497
     0.000005835
    -0.000000465
     0.000144632
     0.002474856
     0.000001114
     0.002652500
     0.002759934
     0.001088136
     0.002329852
     0.000047917
     0.000635923
    -0.000000001
     0.000277152
     0.000000088
     0.001145434
     0.001947296
     0.000066292
     0.002398535
     0.001368550
     0.002671718
    -0.000034647
     0.000814355
    -0.000000314
     0.002045574
     0.002023407
    -0.000003929
     0.000005636
     0.001091814
     0.001741308
     0.001816905
     0.000330358
     0.000002496
     0.002019477
     0.001651957
     0.001122671
     0.000308805
     0.001518083
     0.000566395
    -0.000197972
     0.001138539
     0.002121055
     0.001576317
     0.001572907
     0.001941224
     0.001847748
     0.000639952
    -0.000019583
     0.001415186
     0.002231498
     0.001857922
     0.002133448
     0.001991391
    -0.000000027
     0.001782338
     0.000152879
    -0.000028828
     0.001717381
     0.002188825
     0.001578868
     0.001784177
     0.002000198
     0.000100767
    -0.000519122
    -0.000000057
     0.000002178
     0.000720764
     0.000034755
    -0.000009713
     0.000485905
    -0.000010100
     0.001802745
     0.001669834
     0.001798653
     0.001697900
     0.002185663
     0.001880520
     0.000487518
     0.001267747
     0.001735648
     0.000952696
     0.002089367
     0.002123430
     0.002249370
     0.001991457
     0.002146148
     0.002136801
     0.001916135
     0.001606829
     0.001305636
     0.001734803
    -0.000000451
    -0.000041679
     0.000000493
    -0.000008672
     0.000000002
     0.001072072
    -0.000053220
    -0.000001766
     0.001711482
     0.000000003
     0.002153842
     0.001780851
     0.001996856
     0.002012374
     0.000525462
     0.002726125
     0.002439263
    -0.000000318
     0.000061543
     0.000181826
     0.000986170
    -0.000484433
     0.002200144
     0.000263815
     0.000639656
    -0.000379716
     0.000028269
    -0.000122166
     0.002296942
     0.002243507
    -0.000000063
     0.001860837
     0.002649406
    -0.000001339
     0.003043852
     0.000601661
    -0.000478330
     0.002277164
     0.001716503
    -0.000008395
    -0.000001162
    -0.000000119
     0.000000001
    -0.000472832
     0.002571462
     0.000374177
     0.000441958
     0.001830894
     0.002035663
     0.000000004
     0.000951108
     0.000460272
     0.000000050
    -0.000000804
     0.000802059
    -0.000011506
    -0.000000697
     0.001656709
     0.001185315
    -0.001912317
     0.001985807
    -0.000015160
     0.000014209
    -0.000009190
     0.001417801
    -0.000000713
     0.002272782
    -0.000000113
     0.002569917
     0.002593108
     0.002125288
     0.002777078
     0.001110947
     0.001004894
    -0.000002102
    -0.000000015
    -0.000000258
     0.001158499
     0.002709914
    -0.000000017
     0.002238060
     0.000090692
     0.002104084
    -0.000029106
     0.000698470
     0.002574859
     0.000010054
     0.002281676
    -0.000004602
     0.002105118
    -0.000012139
     0.002668185
     0.000135575
     0.002442353
     0.000159602
     0.001235019
     0.001331982
    -0.000000872
     0.000933246
     0.002608848
     0.002663615
     0.001909785
    -0.000000027
     0.001783262
    -0.000000751
    -0.000079799
     0.001340992
     0.002101216
     0.002337845
     0.000000515
     0.000000056
    -0.000011670
    -0.000000698
     0.002458305
    -0.000018464
     0.000000117
    -0.000000000
     0.002410304
     0.002176984
     0.000420705
     0.001158295
     0.000413457
    -0.000001463
    -0.000000001
     0.000001608
    -0.000000004
     0.000501346
     0.001643367
     0.001554860
     0.001792504
     0.000330400
     0.002277000
    -0.000001836
     0.000226248
    -0.000000002
     0.000462720
     0.000329359
     0.002360998
     0.002655665
     0.002543964
     0.002331991
     0.001278142
    -0.000000033
     0.000267941
     0.000813767
     0.000124509
     0.001416553
    -0.000000294
     0.000023124
    -0.000000227
     0.000544070
     0.002109184
    -0.000008588
     0.002606309
     0.000818127
     0.002289257
     0.000071837
     0.002609960
    -0.000091520
     0.001797309
    -0.000001444
     0.002158592
    -0.000024103
     0.002011275
     0.001751335
     0.001362381
    -0.000055538
     0.000006240
     0.002190625
     0.000000079
    -0.000040744
     0.000000090
     0.002117244
    -0.000962086
     0.002440584
     0.002346625
     0.002628923
     0.000089590
    -0.000014222
     0.001218583
     0.002216874
     0.000890060
    -0.000044554
    -0.000010266
     0.000004104
     0.002377318
     0.000860114
    -0.000020929
     0.001756019
     0.002422845
     0.001123057
     0.000741165
     0.000657620
     0.000838854
     0.000008422
    -0.000091194
    -0.000000350
     0.000024296
     0.000484738
     0.001386133
    -0.000000004
    -0.000001284
     0.001672098
    -0.000000000
     0.000120938
    -0.000000001
    -0.000026485
     0.001744572
     0.002050266
     0.002385339
     0.002545830
     0.002409116
     0.002050503
    -0.000021300
     0.000701075
     0.001490407
     0.001322393
    -0.000000040
     0.002067586
    -0.000085758
    -0.000000060
     0.002114908
    -0.000000060
    -0.000000001
     0.002188458
    -0.000010293
     0.001626137
    -0.000017749
     0.002284709
     0.000839611
     0.002192768
    -0.000049242
     0.002312000
     0.000275250
    -0.000575075
     0.001903479
     0.000330819
    -0.000000524
     0.002220450
     0.001417784
    -0.000008283
    -0.000019665
     0.001090376
    -0.000000008
     0.000802456
     0.001312061
     0.002506738
     0.000000002
    -0.000000154
     0.000393621
     0.002397994
    -0.000008876
    -0.000000001
     0.001478912
     0.002223605
     0.000267115
    -0.000000027
     0.002122221
     0.002209822
    -0.000000005
     0.000002560
    -0.000059443
    -0.000000004
     0.002148105
     0.002179346
    -0.000053004
     0.000901696
     0.002274978
     0.000081573
     0.000000039
     0.001301132
    -0.000000054
    -0.000017379
     0.001886323
     0.001716009
     0.001858828
     0.001792201
     0.002144117
     0.001438380
    -0.000000005
     0.000483733
     0.000064791
     0.000489415
     0.002322701
     0.000000148
     0.002222531
     0.002494585
     0.000170833
     0.001936703
    -0.000002450
     0.000000001
     0.000003910
    -0.000012125
    -0.000000014
    -0.000179650
     0.000007261
     0.000227811
     0.001288594
     0.001916820
     0.002050585
    -0.000994455
    -0.000000000
     0.001638834
     0.001135428
    -0.000000770
     0.000533421
    -0.000033593
    -0.000013763
     0.002472670
     0.002683665
     0.002322712
     0.002505277
    -0.000006138
     0.000000022
     0.002535363
     0.002202077
     0.002549395
    -0.000000022
     0.001540598
     0.001780532
     0.000390634
     0.000883239
     0.000785291
     0.000001442
    -0.000000424
     0.001994599
    -0.000000018
     0.000099889
     0.000067659
     0.000492051
     0.001814988
    -0.000000002
     0.001850865
     0.002112541
     0.000004915
     0.000265902
     0.002342502
    -0.000037493
     0.002045582
     0.002489719
    -0.000008336
    -0.000008094
    -0.000000381
    -0.000001727
     0.001362469
     0.000025143
     0.001844854
     0.000686850
    -0.000600604
     0.000008999
    -0.000000518
     0.000000004
     0.002276438
    -0.000001079
     0.000110056
     0.001223833
     0.001322597
    -0.000000254
    -0.000000035
     0.000127510
     0.000233874
     0.001855881
     0.000895398
    -0.000002743
     0.001098785
    -0.000000268
     0.000887170
     0.000093891
    -0.000004864
    -0.000000001
     0.002068378
     0.002365058
     0.002109682
     0.000190723
     0.002104362
     0.002218213
     0.002542094
     0.000622014
    -0.000000002
     0.000815769
     0.002275527
     0.001318675
    -0.000000039
     0.000000001
     0.000176032
     0.002720317
     0.000000035
     0.000158693
     0.002518496
    -0.000001145
    -0.000000389
     0.002615055
     0.000890319
     0.002407496
     0.002574626
     0.000372051
     0.000000000
     0.001874825
     0.000734910
    -0.000637775
     0.000334077
     0.002489085
    -0.000000951
     0.001769625
     0.000000125
     0.002579670
     0.002075914
     0.000001906
     0.002139004
    -0.000000000
    -0.000000129
     0.002726652
     0.000000001
     0.001170548
     0.000065939
    -0.000005752
     0.001566161
     0.001900284
     0.001675454
     0.002225113
    -0.000000092
     0.000880067
     0.003100327
    -0.000019318
    -0.000000011
     0.002097336
    -0.000000267
     0.001881550
     0.001700414
    -0.000030318
     0.001537838
     0.000034694
     0.002453251
     0.002245877
     0.000657910
     0.002471695
    -0.000035501
     0.002400568
    -0.000001281
     0.002784465
    -0.000020516
     0.000000055
    -0.000004944
     0.001772833
    -0.000015904
     0.000281018
     0.000872963
     0.000825198
     0.000000176
     0.000115849
     0.001838995
     0.002251517
    -0.000005054
    -0.000005527
     0.002326532
     0.000465033
    -0.000000001
     0.001093733
    -0.000000048
    -0.000604266
     0.002606766
     0.001758694
     0.000313407
     0.002176201
     0.001166380
    -0.000514865
     0.002378804
     0.003054006
    -0.000000187
    -0.000000301
     0.000034034
     0.002117885
    -0.000035483
     0.000001579
     0.000072384
    -0.000006515
     0.002565553
     0.002233714
     0.000075618
     0.000615772
    -0.000002565
    -0.000000071
     0.002328607
     0.000042689
     0.000000000
    -0.000000004
     0.000449219
     0.001926319
     0.001076266
     0.001627999
     0.000001278
     0.001638111
    -0.000023909
     0.001137345
     0.001355272
    -0.000000000
     0.001416139
     0.001838824
     0.002115079
     0.000493128
     0.001352010
     0.002445807
    -0.000000009
     0.000141180
    -0.000021511
     0.002439240
     0.002240530
     0.001927400
     0.002456534
     0.001049707
     0.000914868
    -0.000020276
     0.001343192
    -0.000000001
    -0.000017255
     0.001040858
     0.002437612
     0.000026299
    -0.000001379
    -0.000001776
     0.000000214
     0.000578159
     0.000801216
     0.001811767
    -0.000004121
     0.001970759
    -0.000018550
     0.000592133
     0.002348248
    -0.000000001
    -0.000000110
     0.001427862
     0.001367989
     0.002244522
     0.002337705
     0.002497754
    -0.000172982
     0.000363226
     0.002342721
     0.002219159
    -0.000092140
     0.000000000
    -0.000018101
     0.002065570
     0.000159132
     0.000000000
    -0.000004683
     0.002157027
     0.002512034
     0.000001822
     0.000073430
     0.002306927
    -0.000000022
    -0.000000000
    -0.000006700
     0.001119474
     0.002060528
     0.000001113
     0.001515768
    -0.000334350
    -0.000006044
     0.001003456
     0.001616818
     0.000000461
     0.000000061
     0.001417607
     0.000002610
     0.000000023
     0.001476982
     0.002161226
    -0.000000224
     0.000000104
     0.001098751
     0.000128137
     0.002350955
     0.001507417
     0.000513992
     0.002332297
     0.000717262
    -0.000026051
     0.000764188
     0.000098209
     0.002183927
    -0.000346090
    -0.000000379
    -0.000000685
     0.000461323
    -0.000012358
     0.002203008
     0.002411971
    -0.000000001
     0.001513115
    -0.000027822
     0.000009780
     0.000286358
    -0.000023211
     0.000280742
     0.002420644
     0.001562345
     0.002692777
     0.001200280
    -0.000010878
     0.002518544
    -0.000000522
     0.002619249
     0.001977865
     0.000675340
    -0.000000107
    -0.000000001
     0.002415528
     0.002222216
     0.001968114
     0.002598445
     0.000000000
     0.001680183
     0.002400041
     0.000000000
    -0.000005667
     0.001004397
    -0.000001148
     0.000000134
     0.002516450
     0.002436540
    -0.000000004
    -0.000014063
     0.002623576
     0.000040353
     0.002405785
    -0.000008210
    -0.000150409
     0.001094125
     0.001598052
     0.000000028
     0.002068465
     0.002221077
    -0.000006050
    -0.000000013
    -0.000001104
     0.002136227
    -0.000115900
    -0.000005701
     0.002132851
     0.000067190
     0.000051310
     0.002068531
     0.000416753
     0.000096467
     0.001335693
     0.000517974
    -0.000002077
     0.002180079
     0.000310148
    -0.000000774
    -0.000192405
     0.001529607
     0.000004764
     0.002152547
     0.001360510
    -0.000007740
     0.001413447
     0.002500569
     0.002358986
     0.001620315
    -0.000000906
     0.002443491
     0.000708637
     0.000622739
     0.001955650
    -0.000009125
     0.000000106
     0.002195911
    -0.000018462
     0.000000000
     0.000455334
     0.002381554
    -0.000000001
    -0.000000044
     0.001441060
     0.000390399
     0.001726630
     0.002612044
    -0.000697860
     0.001271967
     0.002256442
    -0.000000156
     0.002569790
     0.002323268
    -0.000559278
    -0.000002569
     0.000272306
     0.000158984
    -0.000030808
     0.002156455
     0.001554681
    -0.000079775
     0.002084102
     0.002576728
    -0.000006275
    -0.000003891
     0.001058926
    -0.000000041
     0.000000048
     0.000014952
     0.002376612
    -0.000116377
     0.001321733
     0.001684427
     0.000000000
     0.000570432
     0.001375435
     0.001827174
     0.000004089
     0.001630797
     0.001815602
     0.001570638
     0.000003452
     0.000000006
     0.001625329
     0.001447563
     0.000593168
     0.002103639
     0.002260884
    -0.000000079
    -0.000012870
     0.000373157
    -0.000000000
     0.002212396
     0.002448323
    -0.000033135
     0.001073948
     0.001012103
     0.002448183
    -0.000000000
     0.001787899
    -0.000026287
     0.001581784
    -0.000001783
     0.000289074
     0.002387529
     0.000921223
    -0.000009850
     0.000818151
    -0.000001505
     0.001988791
     0.001103389
     0.000475233
    -0.000000002
     0.000438013
     0.002625537
    -0.000012451
     0.002360086
     0.001710553
     0.000189104
     0.002542126
    -0.000000277
    -0.000027954
     0.000028829
     0.002393474
    -0.000000014
    -0.000207399
     0.000115955
     0.001577807
    -0.000424207
     0.000001359
     0.001898040
    -0.000000389
     0.002471393
     0.000524082
     0.001253222
     0.001232074
     0.002454826
    -0.000000070
     0.001708968
     0.001468222
    -0.000000000
     0.002679136
    -0.000000315
    -0.000000083
    -0.000001229
    -0.000009483
     0.002354678
     0.001696491
     0.001896246
     0.001584991
     0.002653827
     0.001215081
    -0.000011452
     0.001872837
    -0.000000033
     0.002094171
    -0.001331644
     0.001221377
    -0.000000100
     0.000000006
     0.000511194
    -0.000464694
    -0.000208343
     0.002091345
     0.002264570
     0.002060047
    -0.000020236
     0.002436238
     0.000656428
     0.000002040
     0.000086687
     0.002588808
    -0.000005379
     0.000000028
    -0.000002886
     0.001502313
    -0.000001545
    -0.000342784
    -0.000008117
     0.000481705
    -0.000000194
    -0.000019949
    -0.000037590
     0.002520468
     0.002152935
    -0.000000363
     0.002534669
     0.002231864
     0.000000040
     0.002506793
     0.000006622
     0.002587877
     0.002252213
     0.000213017
     0.001891673
     0.001720777
     0.001190701
     0.001300667
    -0.000030986
     0.000587835
    -0.000000006
     0.001966410
    -0.000002334
     0.000007879
    -0.000000007
     0.001818051
     0.000734408
     0.000000000
     0.002206606
     0.001966828
    -0.000013092
     0.002350207
     0.000864072
     0.002487926
     0.001887095
    -0.000015460
    -0.000012175
     0.000406559
     0.001611894
    -0.000002826
     0.001295188
    -0.000112957
    -0.000002351
    -0.000001229
     0.000022397
    -0.000799632
    -0.000000211
     0.002152448
    -0.000002173
     0.000012367
    -0.000000007
     0.001514081
     0.001459450
    -0.000000580
    -0.000003436
     0.001849084
     0.000190671
     0.000290620
     0.000921340
     0.000000012
    -0.000000272
     0.001155580
    -0.000014041
     0.001175178
     0.000135933
    -0.000000010
     0.000528544
     0.002382812
     0.002109636
    -0.000025035
     0.002006779
    -0.000000005
     0.002297308
     0.002190083
     0.001298106
     0.002409338
     0.000727940
     0.000006749
     0.001274628
     0.002846626
     0.002519726
    -0.000000111
    -0.000275320
     0.001947823
     0.002911966
     0.002007213
     0.002423439
     0.000000216
    -0.000000003
     0.002526909
     0.002803701
    -0.000441894
     0.000001239
    -0.000013642
     0.002528556
    -0.000010419
    -0.000018313
     0.001360738
     0.001247281
    -0.000022039
     0.000815296
    -0.000000141
     0.002805257
     0.002679423
     0.000393564
     0.002392042
     0.001229572
     0.000653170
     0.000016466
    -0.000027035
    -0.000139562
     0.002717550
     0.003077232
    -0.000000014
    -0.000005352
    -0.000027088
    -0.000000864
     0.000000789
     0.000024862
    -0.000003826
     0.002210134
     0.001938489
     0.000994453
    -0.000013835
     0.002660463
    -0.000113657
     0.000540788
     0.002779507
    -0.000009997
    -0.000030003
     0.000209194
     0.000887806
    -0.000016434
    -0.000000012
     0.001627620
     0.001072437
     0.001397297
    -0.000008684
     0.002948806
     0.002957781
     0.002551408
     0.002786844
     0.000010179
     0.001973558
     0.002401811
     0.001976227
     0.001904703
    -0.000039352
     0.000074763
     0.000250057
    -0.000000002
     0.000215721
    -0.000000001
     0.002421416
    -0.000000153
    -0.000000000
    -0.000000001
     0.001097656
     0.000008999
     0.000166496
    -0.000003126
     0.001372292
    -0.000006334
     0.000420353
     0.000000031
    -0.000000001
     0.000141174
    -0.000229873
    -0.000004905
     0.001671283
    -0.000025731
    -0.000041887
     0.000559245
    -0.000001596
     0.001722372
     0.000000306
    -0.000007640
    -0.000015232
     0.001430331
     0.000000001
    -0.000000014
    -0.000003238
     0.000002842
    -0.000009720
     0.001639001
    -0.000005744
    -0.000000012
     0.002918053
     0.000000069
     0.000001943
     0.002437784
     0.001585429
    -0.000000006
     0.000429134
    -0.000331516
    -0.000082781
    -0.000000890
     0.000191055
     0.002666497
     0.001640101
     0.001902916
     0.000024856
    -0.000000210
     0.000001536
    -0.000001156
     0.001219184
     0.000506559
    -0.000001396
    -0.000000028
    -0.000000003
    -0.000000080
    -0.000000003
    -0.000686322
     0.000891033
    -0.000012069
    -0.000017446
     0.002011952
     0.001009776
     0.000004632
     0.002707485
     0.002957892
    -0.000000001
     0.000040546
    -0.000000007
    -0.000019142
    -0.000001523
     0.002154527
     0.000257747
     0.000102445
    -0.000000001
    -0.000000484
     0.000034125
     0.000839058
    -0.000005579
    -0.000000237
     0.000000002
    -0.000010814
    -0.000148927
     0.000014227
    -0.000016046
    -0.000120171
     0.000024410
    -0.000033134
    -0.000024718
     0.000303947
    -0.000003017
    -0.000000026
    -0.000409174
     0.000061691
     0.001608510
    -0.000005286
    -0.000000064
    -0.000000004
    -0.000001293
    -0.000000001
    -0.000000219
    -0.000000133
    -0.000000003
    -0.000000060
    -0.000000023
     0.000216532
    -0.000017266
     0.000521076
     0.000000034
     0.000967497
     0.001245986
    -0.000000006
    -0.000000642
    -0.000001407
    -0.000008876
     0.000000000
    -0.000000045
     0.000911829
     0.000045614
    -0.000000005
     0.001300696
     0.002554069
     0.002447946
     0.000110928
     0.002649532
    -0.000108378
    -0.000019590
     0.002681204
     0.001388413
     0.001887952
     0.002695116
    -0.000236284
     0.001063615
     0.001884337
     0.000752277
     0.000245873
     0.001905357
     0.000801552
    -0.000001994
    -0.000013851
     0.000004305
     0.002674898
    -0.000001262
     0.001968335
    -0.000000202
     0.002091237
     0.002161079
    -0.000909212
    -0.000000008
    -0.000000003
    -0.000000682
     0.003125906
    -0.000000005
     0.001715707
    -0.000012388
     0.002613665
    -0.000003036
     0.000061394
    -0.000373546
    -0.000000007
     0.000028904
    -0.000000005
     0.000454203
     0.000489133
     0.001721549
     0.000662576
    -0.000000149
    -0.000000002
    -0.000000549
     0.000000056
     0.000076136
    -0.000018102
     0.000000073
     0.000099118
     0.002024956
     0.000478054
    -0.000778736
     0.000034131
    -0.000008097
     0.001401678
     0.002421580
     0.002336980
     0.000984084
     0.002350478
     0.002435891
    -0.000009816
     0.002872064
     0.002538987
     0.000752293
    -0.000002110
     0.001067649
    -0.000000937
     0.002019377
     0.000000006
     0.000260780
     0.000000037
     0.002453587
    -0.000049979
     0.001826343
    -0.000000498
    -0.000000643
    -0.000029051
     0.001231272
     0.002570950
     0.001232159
     0.000000176
     0.002619309
    -0.000000131
    -0.000000025
     0.001382902
     0.002057231
    -0.000024709
    -0.000090734
     0.001022197
    -0.000121974
     0.002297474
     0.001496133
     0.001497127
     0.002034608
     0.002499084
     0.000051836
     0.001751537
    -0.000012105
     0.000031205
     0.002484848
     0.000606861
     0.000000002
    -0.000000013
    -0.000002113
     0.000361562
     0.001026121
     0.001516676
     0.000000010
     0.001742210
     0.001476900
     0.001602604
     0.001107075
     0.001924937
    -0.000004924
     0.000762205
    -0.000000952
     0.002074831
     0.002050746
     0.001862080
     0.000214256
     0.002779914
     0.002540898
    -0.000022198
     0.001501710
    -0.000070302
     0.002450693
     0.002096434
     0.000014589
    -0.000011964
     0.001956050
    -0.000018689
     0.000781534
     0.000103301
     0.000042740
     0.002195972
    -0.000000018
    -0.000531399
    -0.000000004
     0.000757292
     0.000002709
     0.001729127
     0.002572331
    -0.000001013
    -0.000000220
    -0.000328300
     0.000574239
     0.002294292
     0.000000022
    -0.000000107
     0.000470848
     0.001474888
     0.000819920
     0.002696159
     0.001084161
     0.001132490
     0.002106905
    -0.000578478
     0.000807466
     0.002398787
    -0.000000237
    -0.000000007
     0.002313594
     0.000096116
     0.002192913
     0.002867126
    -0.000009476
    -0.000468070
     0.002254512
     0.002581692
     0.000234452
    -0.000001965
     0.000162552
     0.001537564
     0.000247919
     0.002360346
     0.000004688
     0.000373603
     0.000035694
     0.001904174
     0.001795712
     0.001686728
     0.001681617
     0.001275433
     0.002928007
     0.001161883
     0.001973077
     0.002301131
     0.001194049
     0.002590573
    -0.000000002
    -0.000000001
    -0.000012709
     0.000037803
     0.002359254
     0.002414219
    -0.000027737
    -0.000099183
     0.002361906
     0.000012497
     0.002621268
     0.001087584
    -0.000003860
     0.000072902
    -0.000000007
     0.000849453
     0.000000009
    -0.000002337
     0.001789712
     0.000000001
     0.002582576
    -0.000000493
    -0.000000015
     0.000197173
     0.001355627
     0.000043549
     0.002569699
    -0.000000008
     0.002363413
     0.002818551
     0.001835250
    -0.000000003
     0.000000674
     0.002203718
     0.000524675
     0.002519317
     0.002324691
    -0.000017411
     0.002429442
    -0.000024367
    -0.000046325
     0.001398982
    -0.000035771
     0.000749400
    -0.000027228
     0.001540004
     0.001713093
     0.002247583
     0.000024597
     0.002240805
     0.000597530
    -0.000034902
     0.000005160
     0.000747094
     0.000033557
     0.002683713
     0.002422579
     0.000000001
    -0.000012965
    -0.000000135
    -0.000000001
    -0.000001122
    -0.000033201
     0.000720769
     0.001402404
    -0.000238189
    -0.000096167
    -0.000003336
     0.000958185
    -0.000588298
     0.001767426
     0.000769227
     0.002103467
    -0.000000064
    -0.000019800
     0.000013508
    -0.000041719
     0.001162510
     0.000884540
    -0.000000039
    -0.000058801
     0.000754270
    -0.000016766
     0.001433470
    -0.000000002
     0.002478164
     0.002555785
     0.000039361
     0.002328514
     0.002188732
     0.002225218
     0.001882897
    -0.000033343
     0.001774357
     0.002360196
    -0.000156696
     0.000003766
    -0.000460863
     0.000090093
    -0.000000001
    -0.000872943
     0.000010848
    -0.001044652
    -0.001058248
    -0.001069493
    -0.000868350
    -0.000597551
     0.000028869
    -0.000456837
     0.000000051
    -0.000318004
     0.000000004
    -0.000249636
    -0.000651560
     0.000058604
    -0.001093351
     0.000000007
     0.000000014
    -0.000016777
    -0.000551202
    -0.001101555
    -0.000243790
    -0.001138862
    -0.000315871
    -0.001144391
     0.000000000
    -0.000550942
    -0.000000003
    -0.000430519
     0.000011194
    -0.000446355
    -0.000683270
    -0.001045625
    -0.000183645
    -0.000875424
     0.000074583
    -0.000001660
    -0.000126917
    -0.000749938
     0.000007661
    -0.000000596
    -0.000941849
     0.000032735
    -0.001190593
    -0.001033799
    -0.000309471
    -0.000770386
    -0.001029822
     0.000008489
     0.000013977
    -0.000096545
     0.000000004
     0.000063956
    -0.000583479
     0.000000000
    -0.000248976
    -0.000512224
    -0.000115653
    -0.001186433
    -0.000001884
    -0.000960418
    -0.001127057
    -0.000142479
     0.000000000
     0.000018051
    -0.000979062
     0.000010293
    -0.001234706
     0.000003090
    -0.000045877
    -0.000849159
     0.000041478
    -0.001419173
     0.000004674
    -0.001145578
    -0.000749048
    -0.000001918
    -0.001073568
    -0.000839738
    -0.000914294
    -0.000001021
    -0.001220684
    -0.000011727
     0.000063167
     0.000051910
     0.000005091
    -0.000443469
    -0.000869980
    -0.000000027
     0.000051829
    -0.000961257
    -0.000237537
     0.000267278
     0.000001312
    -0.000850884
    -0.000383672
    -0.000335598
    -0.000862387
    -0.000000398
    -0.000319033
     0.000000101
    -0.001200666
    -0.001318792
     0.000000862
    -0.001093785
    -0.000034143
    -0.000624463
    -0.000526902
    -0.000475761
    -0.000521328
    -0.000112253
    -0.000373243
     0.000000001
    -0.000842219
     0.000000059
     0.000000000
    -0.000489533
    -0.000023702
     0.000020544
     0.000105730
    -0.001305733
    -0.000000006
    -0.000746194
    -0.000109992
    -0.000061621
     0.000100234
    -0.000005033
    -0.000921065
    -0.000713842
    -0.001082387
     0.000003267
    -0.000572705
    -0.000682826
     0.000000000
    -0.001150435
    -0.000872681
    -0.000000001
    -0.001190913
    -0.001282307
    -0.000969811
     0.000000240
    -0.000719127
     0.000003206
    -0.000921400
    -0.001115722
    -0.000002112
    -0.000861883
    -0.000717433
     0.000011854
    -0.000442763
    -0.001019810
     0.000013311
    -0.001028829
    -0.000000709
    -0.001105709
    -0.000782403
    -0.000641544
    -0.000172886
    -0.001223087
    -0.000704766
     0.000024655
    -0.000764263
    -0.000130373
    -0.000950573
    -0.000800590
     0.000059063
    -0.001401642
     0.000016296
     0.000000425
    -0.001057095
     0.000000001
     0.000000035
    -0.000175811
     0.000000001
    -0.001122472
    -0.000611520
    -0.001135390
    -0.000874969
     0.000139153
     0.000002412
    -0.000592231
     0.000119828
    -0.000637243
    -0.000044839
     0.000000016
    -0.001434535
    -0.000000001
    -0.001074701
    -0.000852866
    -0.000990245
    -0.000821954
     0.000000016
     0.000046792
    -0.001347921
    -0.000521412
    -0.001101983
    -0.000095834
    -0.000921500
    -0.000775626
    -0.001110583
    -0.000380754
     0.000027955
     0.000000566
    -0.000907953
    -0.000034965
    -0.001099041
    -0.000675752
    -0.000606935
    -0.000041007
    -0.000996973
    -0.000814189
     0.000118692
    -0.001119597
    -0.000242449
    -0.001150793
    -0.000006832
    -0.001134401
    -0.000852242
    -0.001153348
    -0.001241735
     0.000000046
    -0.000005273
    -0.000000239
     0.000000071
    -0.000607623
     0.000000000
    -0.000479515
    -0.000004511
    -0.000412756
     0.000081224
    -0.000127432
     0.000000176
     0.000085774
     0.000004223
    -0.000992792
    -0.000000146
    -0.000168257
     0.000000001
    -0.000930978
    -0.000711917
    -0.000574706
    -0.000558454
     0.000135875
     0.000014346
    -0.000266067
    -0.000132313
     0.000006738
    -0.000895791
    -0.000019956
    -0.000927338
    -0.000886144
    -0.000883899
     0.000003125
    -0.000219585
     0.000080821
    -0.000338470
    -0.001353779
    -0.001150768
    -0.000503658
     0.000017241
    -0.000797538
     0.000000000
     0.000009810
     0.000000003
     0.000000273
    -0.000883933
    -0.000349613
     0.000127121
     0.000109384
    -0.000051144
    -0.000000037
    -0.000881533
    -0.000000054
    -0.000403032
    -0.000973145
     0.000001600
    -0.000359693
    -0.000053916
    -0.001123999
    -0.000836719
     0.000000389
     0.000014565
    -0.000938482
    -0.000859330
    -0.000336489
    -0.000002149
    -0.001346422
     0.000000232
    -0.001434809
    -0.000012523
     0.000070074
     0.000000052
    -0.000886852
    -0.000972322
    -0.001080484
    -0.001052116
    -0.001102778
    -0.000028778
     0.000483991
     0.000038629
    -0.001506140
    -0.000336411
    -0.000969644
    -0.000975691
    -0.000487418
    -0.000167175
    -0.000769359
     0.000030038
     0.000002056
    -0.000286696
    -0.000024991
    -0.000044656
    -0.001090305
    -0.000000026
     0.000001891
    -0.000384078
    -0.000082762
    -0.001174147
    -0.000412135
    -0.000132411
    -0.000000139
     0.000096881
     0.000031274
    -0.000026342
     0.000000003
     0.000000556
    -0.001090395
    -0.000000005
    -0.001361570
    -0.001086751
    -0.001060310
    -0.000881958
     0.000103781
    -0.000124226
     0.000000470
     0.000053435
    -0.001153707
    -0.000132241
    -0.000548472
    -0.001180320
     0.000000964
    -0.000164918
     0.000000140
    -0.000000000
    -0.000085577
     0.000220431
     0.000123828
    -0.000815877
    -0.000705657
    -0.001179818
    -0.000379350
    -0.000930614
    -0.000611017
     0.000000028
     0.000002756
     0.000003560
    -0.001292571
     0.000018468
    -0.000046296
    -0.000716252
    -0.001006236
     0.000000037
    -0.001346683
     0.000000018
     0.000000523
    -0.000470110
    -0.000765546
    -0.000001587
    -0.000207982
    -0.001069047
    -0.001059384
    -0.001049105
    -0.000046224
    -0.000113669
     0.000230836
    -0.000491396
    -0.000000025
    -0.000532059
    -0.000948334
    -0.000928084
    -0.001068593
     0.000016883
     0.000000408
    -0.000144552
    -0.000049157
    -0.000585295
     0.000088076
    -0.000026236
    -0.000926692
    -0.001161286
    -0.000000001
    -0.000017797
    -0.000001206
    -0.000246322
     0.000000072
    -0.000534301
     0.000002623
    -0.000296280
     0.000411086
    -0.000514852
    -0.000165601
     0.000000004
    -0.000522217
    -0.000027919
    -0.001142229
     0.000246317
     0.000000003
    -0.000838515
     0.000006709
    -0.000172739
    -0.000196567
    -0.000823778
     0.000047728
    -0.000859953
     0.000092218
    -0.000791589
    -0.000001704
    -0.000767222
    -0.000110315
    -0.001030400
    -0.000603831
     0.000111916
    -0.000337718
    -0.000955446
     0.000200695
    -0.000140118
     0.000021826
    -0.000802971
     0.000190371
     0.000003536
    -0.000000001
    -0.001191455
    -0.000667611
     0.000037739
    -0.000371972
    -0.000000280
    -0.000788872
     0.000010585
    -0.000472141
    -0.000966249
     0.000000727
    -0.000000052
    -0.000966136
     0.000019246
    -0.000412714
    -0.000764514
    -0.000168988
    -0.000103626
    -0.000611568
    -0.000711476
     0.000037732
    -0.001025042
     0.000230597
     0.000002646
     0.000168327
    -0.000000230
    -0.001049433
    -0.000748970
    -0.000731129
    -0.000204650
    -0.000036670
    -0.001084674
    -0.000999648
    -0.000983153
     0.000001571
    -0.001083493
     0.000004194
    -0.000359530
    -0.000992879
    -0.000789238
    -0.000105892
    -0.001029492
    -0.000000055
     0.000000109
    -0.000760931
     0.000038684
    -0.000123074
    -0.000000024
    -0.000150851
    -0.001193351
    -0.000967433
    -0.000079170
     0.000085365
     0.000000009
    -0.001098535
    -0.000000239
    -0.001002329
    -0.000088974
     0.000181466
    -0.001245783
    -0.000009021
    -0.000890305
    -0.000650032
    -0.000685033
     0.000190618
    -0.000936031
     0.000056797
     0.000621291
    -0.000985345
     0.000000171
    -0.001126523
    -0.001084681
    -0.000151535
    -0.000277188
     0.000000051
    -0.000000546
    -0.000861473
    -0.000315204
    -0.001208214
    -0.000927693
    -0.000200288
    -0.001236926
    -0.000512357
    -0.000996180
    -0.001843175
    -0.001702832
     0.000080885
    -0.000018689
    -0.000006479
    -0.001234112
    -0.001063797
    -0.000101961
     0.000027221
    -0.000048697
    -0.000503753
     0.000016177
    -0.001557857
     0.000015770
    -0.000950995
    -0.001124148
    -0.001602810
    -0.000132784
    -0.000000002
    -0.000793311
     0.000000196
    -0.001378276
    -0.001720619
    -0.000700413
    -0.000000188
    -0.000096161
     0.000001315
    -0.001036659
    -0.002139418
    -0.000862532
    -0.000000555
     0.000000170
     0.000010452
    -0.000000110
    -0.000062252
    -0.000001225
    -0.000658201
    -0.000000341
    -0.001010872
    -0.001613668
    -0.000001460
     0.000043308
    -0.000285599
    -0.000014475
    -0.001450417
    -0.000176105
    -0.000327403
     0.000022581
    -0.000019657
     0.000013371
    -0.001318439
    -0.001309830
    -0.000339364
    -0.001538622
     0.000027183
    -0.000913565
    -0.000376444
    -0.000098988
    -0.000876210
    -0.001061736
    -0.001245437
    -0.000257148
    -0.000513660
    -0.000000015
     0.000157216
    -0.001144224
     0.000013202
    -0.001175145
    -0.000000397
    -0.000190310
    -0.001347832
    -0.001299858
    -0.001372474
    -0.000048577
     0.000003271
    -0.000962138
     0.000000001
    -0.000237031
     0.000115783
    -0.001005743
     0.000012206
    -0.000323775
    -0.000000883
    -0.001159278
    -0.000611239
    -0.001606042
    -0.001152432
    -0.000000251
     0.000000000
    -0.001437764
    -0.000217822
    -0.000328088
    -0.000000005
    -0.000924455
    -0.001198246
    -0.001409484
    -0.001388858
    -0.000165891
    -0.000115597
    -0.001432178
     0.000000001
    -0.000738373
    -0.000046650
     0.000002046
    -0.001106537
    -0.001074581
     0.000000900
    -0.000225972
     0.000009394
    -0.001157352
    -0.001513580
    -0.001035877
    -0.002330344
    -0.000478357
    -0.000862181
    -0.001287094
    -0.001564092
    -0.001435292
    -0.000000005
    -0.000039811
    -0.000000371
    -0.000991202
    -0.001241299
    -0.000187792
    -0.000000223
    -0.001099494
    -0.000296269
    -0.000717291
    -0.001231271
    -0.000517290
     0.000087829
     0.000064908
     0.000119633
    -0.001042503
    -0.000000004
     0.000187205
     0.000052451
    -0.000037367
     0.000000016
    -0.000749300
    -0.001117308
    -0.000840072
    -0.001179766
    -0.001018900
    -0.000000854
    -0.000302259
     0.000000047
    -0.000312436
    -0.000985457
    -0.000887252
    -0.000895206
    -0.000872038
    -0.001034079
    -0.000558145
    -0.000311233
    -0.000832108
    -0.000950716
    -0.001053133
    -0.000410562
    -0.000521520
    -0.001055216
    -0.000000874
    -0.000238190
     0.000001214
    -0.000564259
    -0.001037226
    -0.000570555
    -0.000861780
    -0.001283490
     0.000000360
     0.000000006
    -0.000279230
    -0.000000108
    -0.000675560
    -0.000002226
    -0.000222640
    -0.000000313
    -0.000484120
    -0.000491399
    -0.000593187
     0.000051264
     0.000062416
     0.000000010
     0.000000399
    -0.001243432
    -0.000000003
    -0.000000001
    -0.000800020
    -0.000003649
     0.000156262
    -0.000280330
    -0.000831596
    -0.000708184
    -0.000931215
    -0.000622095
    -0.000000014
     0.000057538
     0.000174301
    -0.000000744
     0.000699855
    -0.000441217
     0.000111270
    -0.000949550
    -0.000902301
    -0.001067896
    -0.001319687
     0.000024230
     0.000005238
     0.000143767
    -0.001019806
    -0.000164628
    -0.000000367
    -0.000991114
     0.000000253
     0.000000205
     0.000001564
    -0.000168251
    -0.000821599
     0.000191869
    -0.000052954
    -0.000000001
    -0.000608766
    -0.000494896
     0.000021920
     0.000125433
    -0.000025238
     0.000162442
     0.000000005
    -0.000494782
     0.000830713
     0.000045996
    -0.001069265
    -0.000799019
     0.000000760
    -0.001241730
    -0.000075591
    -0.000212312
    -0.001128611
    -0.000052124
    -0.000269598
     0.000051182
    -0.001192239
    -0.000840644
    -0.000947134
     0.000044034
     0.000277625
    -0.000784489
    -0.000530646
    -0.001056375
    -0.001005437
    -0.000753940
    -0.000034572
    -0.000276213
     0.000000043
    -0.000540382
     0.000000028
    -0.000591398
     0.000229504
    -0.000478932
    -0.000472665
    -0.000915260
     0.000114127
     0.000139900
    -0.000000905
    -0.000382035
    -0.000197055
     0.000000383
    -0.001272894
    -0.000018930
    -0.000828693
    -0.000779778
    -0.000576002
    -0.000776051
     0.000000093
     0.000015067
     0.000001279
     0.000070536
     0.000031065
    -0.000853503
    -0.000494606
    -0.000000002
     0.000032714
     0.000047426
    -0.000264055
    -0.001005051
    -0.000993913
     0.000022716
    -0.000273464
    -0.000753918
    -0.000204039
     0.000000215
    -0.001250200
    -0.000157256
    -0.000000002
    -0.000505729
    -0.000975673
    -0.000059910
     0.000107995
    -0.000086468
     0.000170758
    -0.000997888
    -0.000299465
    -0.001144589
     0.000034429
     0.000039082
     0.000000001
    -0.000702718
     0.000000001
    -0.000999056
    -0.000763719
    -0.000101236
     0.000000201
    -0.001369223
    -0.000779564
    -0.000748776
     0.000002315
    -0.001430083
    -0.000781726
    -0.001112587
    -0.001152446
    -0.000008219
    -0.000000905
     0.000282587
    -0.000741256
    -0.000004346
    -0.000003223
    -0.000066785
    -0.000063055
    -0.001032612
    -0.001114702
    -0.000369183
    -0.000000030
     0.000285451
    -0.000423894
     0.000004628
     0.000001153
    -0.001171555
    -0.000970952
    -0.001017119
    -0.000117148
     0.000005966
    -0.000525984
    -0.000000001
    -0.000484704
    -0.000579476
    -0.000361886
    -0.000001746
    -0.000038015
    -0.000000002
     0.000000379
     0.000000000
    -0.000079535
    -0.000494911
     0.000113134
    -0.000279703
     0.000000003
    -0.000543060
    -0.000000013
    -0.000394412
    -0.001168782
    -0.000023885
    -0.000770383
     0.000000224
     0.000184286
     0.000025915
    -0.000806300
    -0.000136310
    -0.000193938
     0.000000020
    -0.000898322
    -0.000913751
    -0.000434952
    -0.000959751
     0.000007989
    -0.000395464
    -0.001004776
    -0.000059202
    -0.000650710
    -0.000000594
    -0.000411884
    -0.000149539
    -0.000972876
    -0.000515475
     0.000056287
     0.000030620
     0.000099571
    -0.000820235
    -0.000415583
    -0.001261652
    -0.000000001
    -0.000254471
     0.000087563
    -0.000719440
    -0.000857587
    -0.000001036
     0.000011807
    -0.000651740
     0.000003773
    -0.001040429
     0.000099359
    -0.000952393
    -0.000000017
     0.000035928
    -0.000619949
    -0.000267922
    -0.000783370
    -0.000210800
     0.000169008
    -0.000675031
     0.000000297
     0.000072191
     0.000030167
     0.000117065
    -0.001147013
     0.000000024
    -0.000871203
    -0.000956048
    -0.001077451
    -0.000000595
     0.000000027
    -0.000814819
    -0.000978189
    -0.001210486
     0.000037545
    -0.000134194
    -0.001054267
    -0.000588837
     0.000005745
    -0.001177132
     0.000000000
    -0.000479383
    -0.001066783
    -0.000062328
    -0.000722312
    -0.000376172
    -0.000022627
    -0.000863867
    -0.001051970
    -0.001251719
    -0.000298385
    -0.000000096
     0.000001316
     0.000000002
     0.000053363
    -0.000137323
     0.000002632
    -0.000196051
    -0.001018503
    -0.000000117
    -0.001063257
     0.000193247
    -0.000306609
     0.000113906
    -0.000577704
    -0.000518879
    -0.001010593
     0.000035209
    -0.001263277
     0.000000018
    -0.001020386
     0.000530276
     0.000037541
    -0.000991399
    -0.000195088
    -0.000000080
    -0.000662149
    -0.001143803
    -0.000706141
    -0.001075992
     0.000118619
    -0.000592311
     0.000001217
     0.000093020
    -0.001451410
    -0.000086958
    -0.000517324
     0.000188364
    -0.000948683
    -0.001043856
    -0.000908557
    -0.001085074
    -0.000049629
    -0.001118420
    -0.000517612
    -0.001430132
     0.000027594
     0.000003327
    -0.000603350
    -0.001114870
    -0.000807095
    -0.000904700
    -0.000454124
    -0.001117190
    -0.000143462
    -0.000817272
     0.000000076
    -0.001010429
    -0.000997555
    -0.000113144
    -0.000540523
    -0.000002365
    -0.001164997
     0.000144837
    -0.001273320
     0.000076042
     0.000010649
    -0.001297775
    -0.001176080
    -0.000897021
    -0.001124878
     0.000000000
     0.000000133
    -0.000000540
    -0.000000002
    -0.000014642
    -0.000178009
    -0.000090646
    -0.000465610
    -0.000181775
    -0.000525666
    -0.000000000
    -0.000634662
     0.000000121
     0.000015064
     0.000059686
     0.000000015
    -0.000197449
    -0.000000551
    -0.001154587
     0.000043548
     0.000036502
    -0.000639982
    -0.000684188
    -0.000769106
    -0.000949871
     0.000000002
    -0.000013206
    -0.000910868
     0.000003553
    -0.000134299
    -0.000238854
    -0.000153953
     0.000016556
    -0.000875197
    -0.000888905
    -0.000912500
    -0.000971154
    -0.001393366
    -0.000167145
     0.000038660
    -0.000657999
    -0.000121324
    -0.000000339
    -0.000832953
    -0.000018643
     0.000000341
     0.000000000
    -0.000010182
    -0.000624962
    -0.000909817
     0.000142384
    -0.000000041
    -0.000116338
    -0.000000055
    -0.000870622
     0.000003035
    -0.000890313
    -0.000425832
     0.000018281
    -0.000304737
     0.000003573
    -0.000886553
    -0.001128897
    -0.001032807
     0.000003233
    -0.000245888
    -0.000719300
    -0.000005195
    -0.001424270
     0.000000000
    -0.001349352
     0.000047755
    -0.001109659
    -0.000907686
    -0.000000016
     0.000172261
    -0.000356837
    -0.000229542
    -0.001134495
    -0.001073968
    -0.001080858
    -0.000811727
    -0.001002156
    -0.000451629
    -0.001529885
     0.000028660
     0.000001192
     0.000074298
    -0.000749998
    -0.000151147
    -0.000429227
    -0.000000010
    -0.001095035
    -0.000010039
    -0.000038033
    -0.000209982
    -0.000213431
    -0.000431797
     0.000000232
    -0.000000071
    -0.000118309
    -0.000645854
    -0.001126932
     0.000000397
     0.000000047
    -0.000023933
     0.000015263
     0.000057638
    -0.001360466
    -0.000000012
    -0.001038147
     0.000003503
    -0.000712677
    -0.000059500
    -0.000975834
    -0.001084166
    -0.001098256
     0.000003313
     0.000000001
    -0.001271775
    -0.000612554
    -0.000264928
    -0.001194366
     0.000049013
    -0.000151461
     0.000000963
    -0.000327319
    -0.001044622
     0.000045970
    -0.000758624
     0.000094964
     0.000000001
    -0.000711348
    -0.000426169
    -0.001062309
    -0.000000034
    -0.000923961
    -0.000368409
     0.000000001
    -0.000362672
     0.000004925
    -0.000000181
    -0.000950243
    -0.000000162
    -0.000640623
    -0.000013547
    -0.001046799
    -0.000432319
    -0.000001012
     0.000000000
    -0.001134538
     0.000441074
    -0.001096118
    -0.000028667
    -0.000544810
     0.000020773
    -0.000308876
    -0.000000021
    -0.000259065
    -0.000942529
     0.000297774
    -0.000995897
    -0.000500234
    -0.000778012
     0.000009986
    -0.000000684
     0.000019182
    -0.001116296
     0.000008900
    -0.000883566
    -0.000000007
     0.000000268
     0.000000528
    -0.000797823
    -0.000714913
    -0.000923468
    -0.000817840
     0.000074055
     0.000000001
    -0.000036428
     0.000004484
    -0.000363574
    -0.000369884
    -0.000300379
    -0.000601433
     0.000000000
    -0.000050970
    -0.000825598
    -0.000955973
    -0.000055960
    -0.000997979
     0.000005260
    -0.000967012
     0.000003696
    -0.000049775
    -0.000651719
    -0.000002161
    -0.000023642
    -0.000774583
    -0.001185257
    -0.000245070
    -0.000844777
     0.000171714
    -0.000921875
    -0.000175947
    -0.001029214
    -0.000000308
    -0.000642991
     0.000020749
     0.000042509
     0.000094398
    -0.000115286
    -0.001302672
    -0.000438585
    -0.000066911
    -0.000000006
    -0.000842211
     0.000188093
    -0.000732910
    -0.000946477
    -0.000222201
    -0.000857415
     0.000000043
    -0.000010496
    -0.000780415
    -0.001222408
     0.000000142
    -0.000225012
    -0.001319276
    -0.000001994
    -0.001431928
    -0.000600285
    -0.000033156
    -0.001082104
    -0.000510995
    -0.000095004
    -0.000347586
     0.000000080
    -0.000263392
    -0.000742900
     0.000000004
     0.000000011
    -0.001153374
     0.000070135
     0.000004383
    -0.000065833
    -0.000188772
    -0.000283102
     0.000115048
    -0.000664359
    -0.000000406
    -0.001020367
     0.000003662
    -0.001002076
     0.000002489
    -0.000857205
    -0.000000119
     0.000044366
    -0.001061774
    -0.000705665
    -0.000064099
     0.000008014
    -0.000997214
    -0.000839183
    -0.001185324
    -0.000000002
    -0.000810158
    -0.000900509
     0.000000784
    -0.000303159
    -0.000027238
    -0.000551354
    -0.000814438
    -0.000079053
    -0.001402826
     0.000023498
    -0.001086632
    -0.000256593
     0.000644042
    -0.000621341
    -0.000901553
    -0.001122548
    -0.000005797
    -0.001019928
    -0.000708787
    -0.001240074
    -0.000069471
    -0.000632667
    -0.000100667
    -0.000032290
    -0.000140080
     0.000003179
    -0.000000067
    -0.000976155
    -0.000000007
    -0.000379790
    -0.000988073
    -0.000103501
    -0.000283752
    -0.000000001
    -0.000559392
     0.000107190
    -0.001056395
    -0.000591674
     0.000078975
    -0.001027250
    -0.001089208
    -0.000017424
    -0.000000005
    -0.000015116
    -0.000924882
     0.000024773
    -0.001004282
    -0.001392694
    -0.000077635
    -0.001039446
     0.000000001
     0.000000012
     0.000077890
     0.000052881
     0.000000063
     0.000037640
    -0.001197549
     0.000048690
    -0.000349470
    -0.000038767
    -0.000779750
    -0.000773934
     0.000000000
    -0.001068241
    -0.000635663
    -0.000370139
    -0.000005389
     0.000002632
    -0.000533744
    -0.000908208
    -0.000653444
    -0.000470194
    -0.000002714
     0.000023781
    -0.000806602
     0.000077438
    -0.001107500
    -0.001065516
     0.000001028
    -0.000647264
     0.000093415
     0.000001776
     0.000160848
    -0.001142255
     0.000000061
    -0.000319531
    -0.000101420
    -0.000000164
    -0.000000007
    -0.000474664
    -0.000209211
    -0.000672623
    -0.000739637
    -0.000183519
    -0.000018333
    -0.000662428
    -0.000757839
    -0.001335303
    -0.001270419
    -0.000000637
    -0.000000001
    -0.000814366
    -0.000102935
    -0.000853210
    -0.001067155
     0.000001293
    -0.000635312
    -0.001032118
     0.000000252
     0.000000426
     0.000008335
    -0.000654179
     0.000000001
    -0.000322799
    -0.000260085
    -0.000607682
    -0.000421425
    -0.001227051
    -0.001210267
    -0.001069887
    -0.000002163
    -0.000000111
    -0.000392619
    -0.000871490
    -0.000445267
     0.000000438
    -0.000644916
    -0.000958041
    -0.000328647
    -0.000017413
    -0.001355573
    -0.000692158
    -0.001031045
     0.000000099
    -0.000916619
    -0.000000387
     0.000115027
    -0.000887417
     0.000173252
    -0.001069902
    -0.001162155
     0.000032821
     0.000073414
    -0.001139524
    -0.000632933
    -0.001125603
    -0.000085329
    -0.000924351
    -0.001151727
    -0.000707127
    -0.000821097
    -0.000142019
    -0.000072455
    -0.001017861
    -0.001119954
    -0.000976511
    -0.000000857
    -0.000008696
    -0.000531216
     0.000033789
     0.000043071
     0.000048971
    -0.000724468
     0.000000013
     0.000000254
    -0.000382751
     0.000010116
    -0.000818100
    -0.000958432
    -0.001312664
    -0.000058961
    -0.000291594
     0.000000017
    -0.000231798
    -0.001096376
     0.000004883
    -0.000779107
    -0.001105097
    -0.001119516
     0.000013352
     0.000150150
    -0.001043192
    -0.000759757
    -0.001435413
    -0.001260851
    -0.000780597
    -0.001081536
    -0.001321119
    -0.001125404
    -0.000540021
    -0.000010461
    -0.000576699
     0.000000055
    -0.000455966
    -0.001032338
     0.000032810
    -0.000064351
    -0.001023805
     0.000000001
     0.000000173
     0.000000002
     0.000047257
     0.000028982
     0.000000017
    -0.000006285
    -0.000185326
    -0.001112876
     0.000000000
    -0.001179360
    -0.001033470
     0.000108096
    -0.000497018
     0.000108416
    -0.000241130
     0.000000039
    -0.001093432
     0.000185877
    -0.000729968
    -0.001098390
    -0.000860802
    -0.001158230
    -0.000000004
    -0.002107141
    -0.000067458
    -0.001111988
     0.000000009
    -0.000381421
    -0.000000001
    -0.001530990
     0.000398820
    -0.001138219
    -0.000906624
    -0.000899251
     0.000029231
    -0.001070736
     0.000048693
    -0.000260828
    -0.000914604
    -0.000589317
    -0.000944256
    -0.000716312
    -0.000633540
     0.000153092
    -0.001165303
     0.000419485
    -0.001167840
    -0.001100024
    -0.000693736
    -0.001253781
    -0.000027214
    -0.000000001
    -0.001344611
     0.000000411
     0.000000006
    -0.000375259
     0.000266871
    -0.000426843
    -0.000138340
    -0.000004330
     0.000000107
    -0.000634179
    -0.000510302
    -0.000000003
    -0.000000207
     0.000100858
     0.000001264
    -0.000000000
    -0.000810283
     0.000241294
    -0.000549983
     0.000016075
    -0.000000001
    -0.000969164
    -0.000755071
    -0.000026128
    -0.000519078
    -0.000000077
    -0.000955590
    -0.000144775
    -0.001231188
    -0.000469967
     0.000006236
    -0.001431960
    -0.001143441
    -0.000000001
    -0.001324793
    -0.000811703
    -0.000027549
     0.000001742
    -0.000932380
    -0.000864823
    -0.000531566
     0.000000059
    -0.000809978
    -0.000090547
    -0.000113650
     0.000063618
    -0.000000002
    -0.000012217
     0.000000061
    -0.000591145
     0.000103769
    -0.000921880
    -0.000975975
    -0.001492998
     0.000002068
    -0.001029946
    -0.000000794
    -0.000972968
    -0.000179416
    -0.001948380
     0.000130586
    -0.000350332
    -0.000856626
     0.000000265
    -0.001149059
    -0.001125984
    -0.000042388
     0.000023257
    -0.001111396
    -0.001032076
    -0.000666857
     0.000002468
     0.000020331
    -0.000516400
    -0.000016746
    -0.001327544
    -0.000014352
    -0.000018665
    -0.001436764
    -0.001220083
    -0.000000384
    -0.001275627
    -0.000088494
     0.000000073
    -0.000871285
    -0.000971858
    -0.000773896
     0.000000001
    -0.001047356
    -0.001411916
    -0.000002764
    -0.001394594
    -0.000336966
     0.000050004
     0.000000239
     0.000000001
     0.000001236
     0.000001992
    -0.001001378
    -0.000499133
     0.000104906
     0.000000449
    -0.001130442
    -0.001089208
    -0.000304238
    -0.000009032
    -0.000874491
    -0.001035017
     0.000001621
    -0.000606767
    -0.001089917
    -0.000256009
    -0.000028929
    -0.000000038
    -0.001493916
    -0.000315866
    -0.001247450
    -0.001265999
    -0.000000020
     0.000058276
     0.000354005
    -0.001311636
     0.000072398
    -0.000127518
    -0.000014686
    -0.001055117
     0.000016166
    -0.000593404
     0.000000001
     0.000000015
    -0.000267525
    -0.000545969
    -0.000973552
     0.000000021
     0.000127966
     0.000057400
    -0.000862212
    -0.000000032
    -0.000825231
    -0.000033178
    -0.001298577
     0.000007310
    -0.000786124
    -0.000009495
    -0.001134428
    -0.000993751
    -0.001042427
     0.000000002
    -0.001183477
    -0.000046555
    -0.000449893
    -0.000930873
    -0.000718022
    -0.001039398
     0.000001442
     0.000294692
    -0.001025152
    -0.000192459
    -0.001002853
     0.000000477
     0.000033666
    -0.000856411
    -0.000277605
    -0.001206689
     0.000001548
     0.000089600
    -0.000236364
    -0.001075152
    -0.000111707
    -0.000501778
    -0.001102617
    -0.001047959
     0.000001173
    -0.000112835
    -0.000307402
     0.000018385
     0.000192203
     0.000000228
     0.000044592
    -0.000000008
     0.000000755
     0.000140377
     0.000024594
    -0.000320773
    -0.000727768
     0.000000001
     0.000146641
     0.000015479
    -0.000264225
    -0.000008931
    -0.000000013
    -0.000155619
     0.000000019
    -0.000326930
    -0.000575644
    -0.000622299
    -0.000000026
    -0.000904651
    -0.001185889
    -0.000916340
    -0.000686225
    -0.000817191
    -0.001022135
    -0.001066220
    -0.000379066
    -0.000824813
     0.000036110
    -0.000391740
     0.000099811
    -0.000026481
     0.000017694
     0.000000103
    -0.000000001
    -0.000001373
     0.000064489
     0.000000020
    -0.000642479
     0.000000243
     0.000002002
     0.000000040
    -0.001294660
    -0.000476119
    -0.000002338
    -0.001112947
    -0.000391951
    -0.000198699
    -0.000233704
    -0.001298918
    -0.000818970
     0.000035009
    -0.001103590
    -0.000794404
    -0.000955295
    -0.001062416
     0.000000085
    -0.000468216
    -0.001011121
    -0.000609588
    -0.000874230
     0.000042497
    -0.000609901
    -0.000046409
    -0.001045792
    -0.001151956
    -0.001175689
    -0.000002732
    -0.000955632
    -0.000089145
    -0.000079801
    -0.001111835
    -0.000877355
     0.000103108
     0.000243054
    -0.000579468
     0.000348532
    -0.001342742
     0.000055429
    -0.000783986
     0.000001147
    -0.000905328
    -0.000110749
    -0.000437321
     0.000004186
     0.000245818
    -0.000890859
    -0.000966262
     0.000000040
    -0.000378472
    -0.000710500
    -0.000029651
     0.000057215
     0.000018516
     0.000243288
     0.000088797
    -0.000845904
     0.000089386
     0.000000000
    -0.000485708
     0.000000015
    -0.000399302
    -0.000000098
    -0.000023252
    -0.000111279
    -0.000711264
    -0.000863171
    -0.000000018
    -0.001093429
    -0.000280472
    -0.000089243
    -0.000000036
     0.000051198
    -0.000309880
    -0.000923488
     0.000084049
    -0.000381669
     0.000000948
    -0.000000002
    -0.000045835
    -0.001021949
    -0.000963067
    -0.000975797
    -0.000187235
    -0.001369215
    -0.000995984
     0.000004342
    -0.000830211
     0.000060875
     0.000000001
     0.000089214
    -0.001264030
     0.000078602
     0.000000358
     0.000065191
    -0.000494707
    -0.000561053
    -0.000073349
    -0.000143428
    -0.000389536
     0.000005064
    -0.000001237
    -0.000456826
    -0.000642738
    -0.000992624
     0.000016347
    -0.000000711
    -0.000690190
    -0.000639570
    -0.000822719
    -0.000544967
     0.000005672
    -0.000695636
    -0.001051025
     0.000068140
    -0.000641202
     0.000000035
    -0.001189104
     0.000118742
     0.000007053
     0.000022454
    -0.000000034
    -0.000001204
    -0.000181994
    -0.000588712
    -0.000743285
    -0.000669281
    -0.000007886
    -0.000361278
    -0.000727807
    -0.000670144
    -0.000183063
    -0.000441309
    -0.000000001
    -0.000003275
    -0.001297495
    -0.001202477
    -0.000998217
    -0.000693653
    -0.000000000
     0.000027757
    -0.001088424
    -0.000858259
    -0.000118450
    -0.000763033
     0.000001112
    -0.000243745
     0.000000002
    -0.000608918
     0.000008700
     0.000000022
    -0.001193900
    -0.000162909
    -0.000599595
    -0.000002267
    -0.000718681
    -0.000481933
    -0.000000035
    -0.000001930
    -0.001052763
    -0.001177404
    -0.000923909
    -0.000667924
     0.000000918
    -0.000475843
    -0.000027843
    -0.000621274
    -0.001264831
    -0.000923799
     0.000002597
    -0.001065123
    -0.000663766
    -0.000824264
     0.000136275
     0.000000281
     0.000221654
    -0.001080603
    -0.000884601
     0.000019226
     0.000012362
    -0.000522864
    -0.001112386
    -0.000943554
    -0.000050595
    -0.001100271
    -0.000945000
    -0.000313192
    -0.000058915
    -0.000782758
    -0.000711030
    -0.001092305
    -0.000174496
     0.000004553
    -0.000001801
    -0.000950487
    -0.001078547
    -0.000760987
     0.000027279
     0.000099855
     0.000009254
     0.000012073
    -0.000356993
     0.000000099
    -0.000033699
    -0.001322980
    -0.000912737
    -0.000710775
    -0.000694962
     0.000013426
    -0.001122909
    -0.000206421
     0.000000074
    -0.000064685
     0.000000094
     0.000000020
    -0.000000002
    -0.001059227
    -0.001053811
    -0.001064994
    -0.000847243
    -0.001002505
    -0.001399140
    -0.000744915
    -0.001000825
    -0.000009329
    -0.000872911
    -0.001144948
    -0.001164118
    -0.000965390
    -0.000173914
    -0.000120958
    -0.001004977
    -0.000480483
     0.000000141
    -0.000476253
     0.000107019
     0.000001126
     0.000000039
     0.000054710
    -0.000293772
    -0.000000231
    -0.000780406
    -0.000004594
    -0.001982330
    -0.000825890
    -0.001908994
    -0.001625360
    -0.001593041
    -0.001589835
    -0.001623717
    -0.000000305
    -0.000130836
    -0.001000587
    -0.000004363
    -0.000056247
    -0.001378663
    -0.001677592
    -0.000049043
    -0.000182936
    -0.000000037
    -0.002038905
    -0.000135964
    -0.001928466
    -0.000564776
    -0.001955750
    -0.000514923
    -0.001808381
    -0.002051231
    -0.001943072
    -0.001424258
    -0.001872004
    -0.001990543
    -0.001912516
    -0.000000001
    -0.000000004
    -0.000218844
    -0.000545497
    -0.001953502
    -0.000000096
    -0.001897443
    -0.000000510
    -0.001878551
    -0.000549165
    -0.000050236
    -0.001159429
    -0.001973001
    -0.001926880
    -0.000000139
    -0.001890691
    -0.001983965
    -0.001901132
    -0.000039036
    -0.001946157
    -0.000054272
    -0.000827440
    -0.000000001
    -0.002028091
    -0.001139713
    -0.002119844
    -0.000077638
    -0.000000000
    -0.000522486
    -0.000053501
    -0.000000047
    -0.001709159
    -0.001671705
    -0.001685991
    -0.001673528
    -0.000002821
    -0.001485387
    -0.000000242
    -0.001047926
    -0.002044990
    -0.001270360
    -0.002028848
    -0.000622763
    -0.000001139
    -0.001779835
    -0.000000277
    -0.000210899
    -0.002048847
    -0.002156828
    -0.002134046
    -0.001354179
    -0.002050590
    -0.000535747
    -0.000426003
    -0.000000283
    -0.001998494
    -0.002073706
    -0.001957536
    -0.001990873
    -0.002056614
    -0.000004869
    -0.002003277
    -0.000000014
    -0.002022004
    -0.002103434
    -0.002047987
    -0.000004964
    -0.000138991
    -0.000000001
    -0.000000008
    -0.000420327
    -0.000024140
    -0.001970880
    -0.000201926
    -0.001995378
    -0.002028658
    -0.000198987
    -0.000000594
    -0.000759353
    -0.001846449
    -0.000986271
    -0.001888328
    -0.000005937
    -0.001580265
    -0.001543174
    -0.001546871
    -0.001569953
    -0.001025300
    -0.000187548
    -0.000000440
    -0.001594261
    -0.001157127
    -0.000031965
    -0.000001521
    -0.001963431
    -0.000000243
    -0.000118585
    -0.000039142
    -0.001890557
    -0.000758621
    -0.001869450
    -0.000170107
    -0.001882758
    -0.001984812
    -0.001673518
    -0.000496096
    -0.001857473
    -0.001923731
    -0.001817490
    -0.001461368
    -0.001879832
    -0.000672317
    -0.000162670
    -0.000000004
    -0.000000001
    -0.001820746
    -0.000001622
    -0.001798069
    -0.000000042
    -0.000519509
    -0.000987989
    -0.000025313
    -0.001867916
    -0.001935385
    -0.001843651
    -0.000000414
    -0.001849041
    -0.001917815
    -0.001905007
    -0.000028701
    -0.000035813
    -0.000820630
    -0.000130464
    -0.002097062
    -0.001103693
    -0.002008554
    -0.000000163
    -0.000029897
    -0.000354481
    -0.001655522
    -0.001673857
    -0.001654377
    -0.001691623
    -0.001019093
    -0.000000167
    -0.001386765
    -0.000001418
    -0.000782616
    -0.002008003
    -0.001326509
    -0.002020040
    -0.000257065
    -0.000000189
    -0.001597029
    -0.000000270
    -0.001552914
    -0.002133958
    -0.002123887
    -0.002024816
    -0.000001252
    -0.000555994
    -0.000450235
    -0.001970881
    -0.001995000
    -0.001940601
    -0.002046455
    -0.001972430
    -0.000000049
    -0.001984635
    -0.000005175
    -0.002033624
    -0.002075121
    -0.002003026
    -0.000007614
    -0.002022517
    -0.000000021
    -0.000078279
    -0.000025446
    -0.000318230
    -0.000302394
    -0.001883927
    -0.001997702
    -0.001970297
    -0.000660194
    -0.000684651
    -0.000811440
    -0.000021253
    -0.000369181
    -0.001883137
    -0.000275930
    -0.001468541
    -0.001089431
    -0.001521718
    -0.001746320
    -0.000849371
    -0.000009228
    -0.001779088
    -0.001097580
    -0.000256715
    -0.001254254
    -0.000872572
    -0.001187988
    -0.001904010
    -0.000020581
    -0.001918522
    -0.000000040
    -0.000000016
    -0.001395493
    -0.000000001
    -0.001618816
    -0.000007744
    -0.000106383
    -0.000000019
    -0.002010212
    -0.002192636
    -0.001616053
    -0.000004206
    -0.001819034
    -0.001723272
    -0.000349041
    -0.000000477
    -0.001934061
    -0.000850458
    -0.000000009
    -0.000626210
    -0.000100726
    -0.001606058
    -0.002070575
    -0.000000633
    -0.000103966
    -0.001819504
    -0.001571211
    -0.000213671
    -0.000009572
    -0.001451717
    -0.000525263
    -0.001954697
    -0.000000122
    -0.002101640
    -0.000656272
    -0.000805689
    -0.001966379
    -0.002107246
    -0.000204409
    -0.000006814
    -0.001666710
    -0.001658555
    -0.001646665
    -0.001694381
    -0.000153192
    -0.000050069
    -0.001733345
    -0.001707539
    -0.000000001
    -0.000432112
    -0.000000195
    -0.000006666
    -0.000031227
    -0.000000025
    -0.002034070
    -0.000951313
    -0.001997939
    -0.002163390
    -0.001942682
    -0.000800661
    -0.002031438
    -0.002020843
    -0.000197019
    -0.000089708
    -0.001958500
    -0.001947748
    -0.001968092
    -0.001486778
    -0.000000228
    -0.000000001
    -0.001945761
    -0.002022538
    -0.000000005
    -0.002017904
    -0.000849568
    -0.000088260
    -0.000000055
    -0.001286374
    -0.000364045
    -0.000314708
    -0.000000359
    -0.001940861
    -0.002068962
    -0.001731527
    -0.000161509
    -0.002005232
    -0.001885643
    -0.000000001
    -0.001946276
    -0.000000006
    -0.000844018
    -0.000049682
    -0.000000563
    -0.002370492
    -0.000029400
    -0.002184976
    -0.001559376
    -0.000000001
    -0.001104644
    -0.000000228
    -0.000268755
    -0.000923246
    -0.000000074
    -0.001747245
    -0.000004595
    -0.001801260
    -0.001742710
    -0.001761401
    -0.001624879
    -0.002330570
    -0.000462773
    -0.002268659
    -0.001380954
    -0.002170978
    -0.000922753
    -0.002085462
    -0.002185418
    -0.000089964
    -0.002321846
    -0.000011516
    -0.000003211
    -0.000196292
    -0.000000041
    -0.002221239
    -0.000972037
    -0.002143287
    -0.000000003
    -0.002324686
    -0.000000001
    -0.000015314
    -0.002210990
    -0.002048029
    -0.002112201
    -0.002071470
    -0.002400261
    -0.000004213
    -0.002199406
    -0.002121795
    -0.000059015
    -0.002116835
    -0.002280062
    -0.001968181
    -0.000406590
    -0.000000047
    -0.000007450
    -0.000624657
    -0.000814121
    -0.000001920
    -0.001476294
    -0.002110847
    -0.000416305
    -0.002072407
    -0.000048399
    -0.000326490
    -0.000000146
    -0.001055511
    -0.000000062
    -0.000637624
    -0.000000004
    -0.001644369
    -0.001704405
    -0.001595935
    -0.001651693
    -0.001709121
    -0.002068836
    -0.001330243
    -0.002031312
    -0.002162452
    -0.002095850
    -0.001775873
    -0.002074712
    -0.000001618
    -0.001367572
    -0.000000018
    -0.000160366
    -0.000680446
    -0.002027095
    -0.000009811
    -0.000527757
    -0.000036526
    -0.002131259
    -0.000001420
    -0.001857330
    -0.001985001
    -0.002014929
    -0.001957874
    -0.001906244
    -0.000056117
    -0.002131452
    -0.001953259
    -0.002011752
    -0.002011386
    -0.000433923
    -0.002004652
    -0.001910438
    -0.000000002
    -0.000039089
    -0.000000004
    -0.000130320
    -0.000005184
    -0.000720887
    -0.000779339
    -0.000140664
    -0.001914861
    -0.000003479
    -0.001992816
    -0.000000001
    -0.000004694
    -0.000376352
    -0.000000648
    -0.001602303
    -0.001615836
    -0.001641492
    -0.001600842
    -0.000198998
    -0.001647731
    -0.000080450
    -0.001634324
    -0.000141437
    -0.001972356
    -0.000055543
    -0.001945445
    -0.000031293
    -0.001958264
    -0.000000108
    -0.001120224
    -0.001873311
    -0.001950164
    -0.000704201
    -0.002057706
    -0.000061988
    -0.001956902
    -0.000000004
    -0.000970699
    -0.001877035
    -0.001904250
    -0.001296023
    -0.001869284
    -0.000000328
    -0.000000001
    -0.001881842
    -0.000000004
    -0.001925867
    -0.001699482
    -0.001941646
    -0.000000003
    -0.000000002
    -0.001873718
    -0.000291565
    -0.000001414
    -0.001292765
    -0.000501952
    -0.001644879
    -0.000165130
    -0.001889068
    -0.001983694
    -0.000793630
    -0.000000172
    -0.001947654
    -0.001388854
    -0.001982308
    -0.000622821
    -0.000149827
    -0.000020266
    -0.000000394
    -0.000000007
    -0.000000004
    -0.000680370
    -0.000000000
    -0.000409403
    -0.001629250
    -0.001594212
    -0.001614842
    -0.001584023
    -0.001934236
    -0.001735674
    -0.001943896
    -0.001530475
    -0.001938349
    -0.001998800
    -0.002024790
    -0.001847879
    -0.000000004
    -0.000928045
    -0.000000772
    -0.000135811
    -0.000000003
    -0.001736134
    -0.000520039
    -0.000592047
    -0.000033013
    -0.001900039
    -0.000050894
    -0.001655586
    -0.000007210
    -0.001883422
    -0.001885193
    -0.001865301
    -0.001946265
    -0.001989007
    -0.000116842
    -0.001920654
    -0.001911913
    -0.001741547
    -0.000587264
    -0.001891413
    -0.001886614
    -0.000010744
    -0.000043501
    -0.000001936
    -0.000875049
    -0.000718045
    -0.000844975
    -0.000808152
    -0.002066024
    -0.001097272
    -0.000001304
    -0.001751359
    -0.001689225
    -0.001621662
    -0.001742755
    -0.001262755
    -0.001754404
    -0.000012204
    -0.000642635
    -0.001720443
    -0.001491861
    -0.000873619
    -0.000043174
    -0.000001768
    -0.002061662
    -0.000008904
    -0.001591622
    -0.000107434
    -0.002082821
    -0.000000172
    -0.002109672
    -0.002146133
    -0.002077705
    -0.000000336
    -0.000190562
    -0.002036737
    -0.002027591
    -0.000046502
    -0.002065415
    -0.001313893
    -0.001982893
    -0.000000317
    -0.000133771
    -0.000000077
    -0.001982576
    -0.001661754
    -0.000181648
    -0.000004305
    -0.002068158
    -0.002083216
    -0.000022745
    -0.000902040
    -0.002010064
    -0.002019600
    -0.000000174
    -0.002006569
    -0.001059409
    -0.002053545
    -0.000000031
    -0.000577998
    -0.000826263
    -0.000020528
    -0.000214447
    -0.002136821
    -0.002023247
    -0.001708552
    -0.001683818
    -0.001697426
    -0.001709255
    -0.001721780
    -0.001767650
    -0.000030930
    -0.000081685
    -0.000002972
    -0.000000855
    -0.000266385
    -0.001047384
    -0.001964437
    -0.000000027
    -0.000010933
    -0.001196435
    -0.002004221
    -0.002214117
    -0.002070877
    -0.000162346
    -0.000260759
    -0.002059345
    -0.002071984
    -0.001789282
    -0.002039530
    -0.001985933
    -0.002006122
    -0.000000010
    -0.002059330
    -0.002005268
    -0.000000043
    -0.000000340
    -0.000070625
    -0.001092182
    -0.002034764
    -0.000338226
    -0.001054907
    -0.000000738
    -0.000178291
    -0.002081624
    -0.002000992
    -0.000255557
    -0.001691168
    -0.002030165
    -0.002048529
    -0.000000026
    -0.001985224
     0.000000046
    -0.000289944
    -0.000236779
    -0.001030725
    -0.000676178
    -0.000568189
     0.000557032
    -0.001139047
    -0.000251490
    -0.000000218
    -0.001344225
    -0.001385850
    -0.000529890
    -0.000000002
    -0.000879304
    -0.001786860
    -0.000515951
    -0.000654885
    -0.000304847
    -0.001156976
     0.000000010
     0.000078784
     0.001168239
    -0.000202198
     0.000000490
     0.000428133
    -0.000928486
    -0.000845950
     0.000950352
    -0.000384043
    -0.000191593
    -0.000933291
    -0.000092025
    -0.000146967
     0.000522741
    -0.000573064
     0.000645932
    -0.000000007
    -0.000681960
    -0.000014803
    -0.001214038
    -0.001771359
    -0.000548457
    -0.000001931
    -0.000170958
    -0.000000006
    -0.000525856
    -0.001483415
    -0.000398951
    -0.001312029
    -0.001343311
    -0.000367965
    -0.000298563
    -0.000821468
    -0.000892290
     0.000741934
    -0.000048294
    -0.000053511
     0.000013527
    -0.000569828
     0.000836844
    -0.000976298
    -0.000676915
    -0.000517954
     0.000057076
    -0.000002775
    -0.001111603
    -0.000647856
    -0.000067151
    -0.000000026
    -0.000784411
    -0.000101615
     0.000000181
     0.000255294
     0.000450288
    -0.001502854
    -0.001075081
    -0.000585098
     0.000385964
    -0.000127980
    -0.001739200
    -0.000691772
    -0.000309780
    -0.000005828
    -0.001095345
     0.000677049
    -0.000001217
     0.000000326
    -0.000133902
     0.000201530
     0.001272282
    -0.000705010
    -0.000182286
     0.001052990
    -0.000008186
    -0.000351684
     0.000000269
    -0.000199203
     0.000156661
     0.000276186
     0.001072732
     0.000786790
    -0.000000003
    -0.000036517
    -0.000000677
    -0.002166021
    -0.002251523
     0.000575735
     0.000001116
     0.000066624
    -0.001589031
     0.000278989
    -0.000414280
     0.000009962
    -0.001022464
     0.000262529
    -0.000000000
     0.000788374
    -0.001602429
     0.000328986
    -0.001285296
    -0.000284808
     0.000064637
     0.000594182
    -0.001491960
     0.000783699
     0.000002958
    -0.000087948
     0.000828216
    -0.000082494
    -0.000711656
     0.000311048
     0.000223891
     0.001115773
    -0.000000016
     0.000162740
    -0.002436287
     0.000875913
    -0.000629909
    -0.001772872
     0.000936446
    -0.000000005
    -0.001134738
    -0.000438055
    -0.001464910
    -0.001392373
    -0.000384426
    -0.000000003
    -0.000000269
    -0.001910861
    -0.002179287
    -0.000114185
    -0.000000001
     0.001007385
     0.000721084
    -0.000000001
    -0.000000008
     0.000338854
     0.000028844
     0.000618684
    -0.000000001
     0.000376212
    -0.000009244
     0.000000180
    -0.000185790
     0.000884661
    -0.000440104
    -0.000173460
     0.000130925
    -0.000171407
     0.000022878
     0.000148598
    -0.001646179
    -0.000039621
     0.000430859
    -0.000022670
    -0.001183782
    -0.000000000
    -0.002083555
    -0.002066988
     0.000271549
     0.000111898
    -0.000000015
    -0.001425278
    -0.000939830
    -0.001017507
    -0.000793697
    -0.000076145
     0.000247373
    -0.000000102
    -0.000028755
    -0.000851182
     0.000195023
    -0.000647026
     0.000011129
     0.000109125
    -0.001920677
     0.000347280
    -0.000057945
    -0.001653940
     0.000143464
     0.000085922
     0.000332770
     0.000850989
     0.000008475
    -0.000000001
    -0.001362085
     0.000039996
    -0.000000038
    -0.000280732
     0.000002281
     0.000023582
     0.000412142
    -0.000117752
    -0.000000361
    -0.002534142
    -0.000039824
     0.000009478
     0.001064093
    -0.000097407
    -0.000000015
     0.000049325
    -0.000351560
    -0.001354663
    -0.000092845
    -0.000031213
    -0.000102440
     0.000123929
     0.000871117
    -0.000000407
    -0.001169591
     0.001125332
    -0.001124557
    -0.000249462
     0.000121916
     0.000008605
    -0.000424636
    -0.000219678
     0.000224081
     0.000000497
    -0.000002733
    -0.000002051
    -0.000000702
     0.000072340
    -0.000000000
    -0.000514660
    -0.001669707
     0.000141163
    -0.000025082
    -0.000866193
     0.000338733
    -0.000002644
     0.000043452
    -0.000233901
    -0.000001675
    -0.000070705
    -0.000285786
    -0.000367462
    -0.000001331
     0.000003497
     0.000963913
     0.000663000
     0.000285063
    -0.000300025
    -0.000000306
     0.001094685
    -0.000178315
    -0.000205157
    -0.000276977
    -0.000230885
    -0.000186838
     0.000889146
     0.000752408
    -0.001233154
    -0.000377390
     0.000009076
    -0.000000000
     0.000005940
     0.001045572
    -0.000634730
     0.000000018
     0.000781207
    -0.001223814
    -0.000037138
    -0.000208185
     0.000636247
     0.000072321
    -0.000319760
     0.000000038
     0.000087828
    -0.000063118
     0.000031638
    -0.000777204
    -0.000540098
    -0.000038233
    -0.000000420
    -0.000717340
     0.000002965
    -0.000000000
    -0.000651090
     0.000971397
    -0.001101030
     0.000045329
    -0.000000042
    -0.000522966
    -0.000068366
    -0.000812816
     0.000613465
    -0.001331245
    -0.000597347
    -0.000234024
    -0.000000004
     0.000909348
    -0.001809593
    -0.000000626
     0.000649164
    -0.000325985
    -0.000012771
    -0.000618377
     0.000345724
    -0.000000007
     0.000074319
    -0.001209679
    -0.000186631
    -0.000012447
    -0.000002618
    -0.000707691
     0.001094160
    -0.000000002
    -0.000084635
    -0.001051836
     0.000815382
    -0.000489270
    -0.000805724
    -0.000671691
     0.000434963
    -0.000315518
    -0.000000673
    -0.000000035
     0.000090292
     0.000035131
    -0.000000117
     0.000000003
     0.000953358
     0.000001684
    -0.000142922
    -0.000000000
     0.000860288
    -0.000957445
    -0.000000181
    -0.000140918
     0.000002070
    -0.001311382
    -0.000078265
     0.000341157
     0.000071821
     0.001183834
    -0.000000010
    -0.000036886
    -0.000041995
    -0.000239974
     0.000927295
     0.000839873
    -0.000000011
    -0.000000952
    -0.000000003
     0.000645693
    -0.000279417
    -0.000056145
    -0.000103192
     0.000978148
     0.001025093
     0.000877217
    -0.000004194
     0.001035305
     0.001214968
    -0.000038620
     0.000816247
    -0.000037691
    -0.000001279
     0.001220383
     0.001084989
    -0.000003774
    -0.000004272
     0.001118403
    -0.000001565
     0.001006298
     0.000570065
    -0.000140236
     0.000303252
    -0.000000974
    -0.000027811
     0.000609698
     0.000304090
    -0.000000170
     0.001174672
     0.000610606
     0.000025578
    -0.000000001
    -0.000000488
     0.000044968
    -0.000000224
    -0.000005759
     0.001126729
    -0.000000003
    -0.000072734
     0.001198388
     0.000810642
     0.001275801
     0.001164465
    -0.000000001
    -0.000000168
    -0.000000010
    -0.000085885
    -0.000827371
    -0.000001694
     0.001186803
     0.001439686
    -0.000000025
    -0.000009391
     0.000467912
    -0.000007524
     0.000051094
    -0.001715517
     0.000398466
     0.000986444
     0.000009958
    -0.000448352
     0.000000284
    -0.000001553
     0.001457182
    -0.000000019
    -0.000170606
     0.001524548
    -0.000000004
     0.000354127
     0.001074885
     0.000026191
    -0.000025058
     0.000868423
     0.000883784
    -0.000177948
     0.000009066
    -0.000233659
     0.000052803
    -0.000000008
    -0.000005149
     0.000920674
     0.000593594
    -0.000014147
    -0.000164129
    -0.000002444
     0.000551152
     0.000925051
     0.000558447
     0.000394971
    -0.000003210
     0.001077689
     0.000923430
    -0.000000060
    -0.000010271
    -0.000002194
     0.001057646
    -0.000074097
    -0.000000542
     0.000273748
     0.000797760
    -0.000172512
    -0.000739907
    -0.000017603
     0.000349889
    -0.000185671
     0.001018870
    -0.000000018
     0.000551107
     0.000002242
     0.000204245
     0.002124121
     0.002106005
     0.001708970
     0.001792578
     0.000013677
     0.000001452
     0.001612638
    -0.000001975
     0.001491874
    -0.000000413
     0.001509161
    -0.000000007
    -0.000003631
     0.001694150
    -0.000000220
     0.000046176
     0.001203086
     0.001227886
     0.001109773
     0.001135172
     0.001832262
     0.001925685
     0.001685157
     0.001779349
     0.002021762
     0.002068555
     0.001568254
     0.001603814
     0.000816906
    -0.000004896
     0.002119675
    -0.000002512
     0.001471977
    -0.000000001
     0.002059196
     0.001299054
     0.001845919
     0.001876802
     0.002168380
     0.001499067
     0.001967632
     0.001869878
     0.001651731
     0.001709453
     0.001406378
     0.001468517
     0.001993099
     0.001973644
     0.001469519
     0.001542660
     0.002154814
     0.001756695
     0.001655000
     0.001363943
    -0.000000181
     0.000659765
     0.000072443
     0.000001869
    -0.000000001
     0.000520398
    -0.000003637
     0.000669272
     0.000792445
     0.000758944
    -0.000187916
     0.002103684
     0.001784576
     0.001343669
     0.001568015
     0.001582267
     0.001589952
     0.001353903
     0.001568666
     0.001634256
     0.001647547
     0.001386508
     0.001512191
     0.000638448
     0.001534998
     0.001243854
    -0.000000195
    -0.000000002
     0.000613622
     0.000767052
     0.000006536
     0.001389205
    -0.000000047
    -0.000051575
    -0.000000013
     0.001791621
     0.000064046
     0.001454832
    -0.000000006
     0.000138829
    -0.000000093
     0.000460913
     0.001801925
     0.001477508
    -0.000001363
    -0.000007255
     0.001989126
     0.001939505
     0.001395277
    -0.000003845
     0.001724879
    -0.000006104
     0.001957818
     0.001406926
     0.000063257
    -0.000143186
     0.002017649
    -0.000000694
     0.001359581
     0.000829626
     0.001522950
     0.001850862
     0.001040584
     0.001165025
     0.001599108
     0.000166620
     0.001578457
     0.001471815
     0.001607905
     0.001165268
     0.001633662
     0.000749175
     0.000864709
     0.000952258
     0.001511689
     0.000043226
     0.002368838
     0.002198886
    -0.000000900
     0.001666020
     0.001681424
     0.001913166
     0.000209614
    -0.000000009
     0.001533519
     0.001871606
     0.001707371
     0.001751498
     0.001348118
     0.001604898
     0.001526676
     0.001795484
     0.001523593
    -0.000000060
     0.001932868
     0.001768345
     0.000185182
     0.001632119
    -0.000000001
     0.001982122
     0.002438857
     0.000794435
     0.001769686
     0.002243907
     0.000057210
     0.001985336
    -0.000000476
     0.001667907
     0.001022843
     0.002271793
     0.001390665
     0.001574496
     0.001759719
     0.000013739
     0.002015243
    -0.000000490
     0.001452695
     0.002093440
     0.001893891
     0.002085929
     0.001684815
     0.000086279
    -0.000000188
     0.001570081
     0.002384744
     0.001876026
    -0.000000560
     0.000032263
     0.001681658
     0.002272200
     0.002030459
     0.000072765
    -0.000000244
     0.001929824
     0.001913800
