#
# Number of atoms
#
 68
#
# The current total energy in Eh
#
  -3488.547128975084
#
# The current gradient in Eh/bohr
#
       0.000004094771
       0.000045677490
       0.000026186674
      -0.000052545055
       0.000068243192
       0.000018560121
       0.000089305887
       0.000231296195
       0.000022471649
      -0.000179888928
       0.000029861754
      -0.000013020715
      -0.000050557188
      -0.000173137517
      -0.000104781753
       0.000045451619
       0.000000244738
      -0.000109123647
       0.000022461209
       0.000047342154
       0.000032909088
      -0.000070903440
       0.000061357949
       0.000034471795
      -0.000046834431
      -0.000030823776
      -0.000058508656
      -0.000034994454
       0.000012343823
       0.000063104359
       0.000094549594
       0.000026911304
       0.000007718442
       0.000073769994
      -0.000030597315
      -0.000023563235
      -0.000001370662
      -0.000062563028
      -0.000000349174
       0.000011992740
      -0.000065644630
       0.000018315596
      -0.000041511772
      -0.000107835701
      -0.000037520284
       0.000056153868
      -0.000001217118
      -0.000067610914
       0.000003607407
       0.000011233882
      -0.000039358613
       0.000012091185
       0.000061265702
       0.000049924716
       0.000040039348
      -0.000017446314
       0.000003658644
       0.000007258818
      -0.000045249097
       0.000023545590
      -0.000021166635
       0.000059641597
       0.000007179670
       0.000000144958
      -0.000055015193
      -0.000050771595
       0.000005398147
      -0.000056071308
      -0.000001649974
      -0.000196923250
      -0.000025754226
      -0.000070826139
       0.000069890430
      -0.000034403678
       0.000044560927
       0.000053423876
      -0.000050778443
       0.000039646864
       0.000015781474
       0.000035730869
       0.000014934159
       0.000072680639
      -0.000069652274
       0.000072323176
      -0.000022398533
      -0.000011919629
       0.000060317355
       0.000007711108
      -0.000024709117
      -0.000045932339
      -0.000018933848
      -0.000005066740
       0.000054681685
      -0.000034608635
      -0.000117443620
       0.000240512825
      -0.000020120473
      -0.000068673279
       0.000009898218
       0.000001330129
      -0.000029513111
       0.000014600079
       0.000019109709
       0.000023826413
      -0.000001473140
      -0.000010604602
       0.000062238480
       0.000024601459
      -0.000012562000
       0.000052136959
       0.000012090938
      -0.000031757626
       0.000067824124
      -0.000024247332
      -0.000022251449
       0.000156224546
       0.000079013315
      -0.000016100492
       0.000037759203
       0.000023332544
      -0.000020239202
      -0.000026737534
       0.000013744021
      -0.000017702469
      -0.000063684131
      -0.000034765126
       0.000000067184
       0.000035026971
       0.000024300987
       0.000051540192
       0.000035106851
      -0.000073447034
       0.000044559128
      -0.000049339230
       0.000017263761
       0.000205996063
       0.000016044813
      -0.000011060208
      -0.000023426472
       0.000017946185
       0.000006707904
      -0.000005505003
       0.000072389744
      -0.000105993669
      -0.000005086642
       0.000012848315
       0.000002294067
      -0.000002349854
      -0.000008326710
      -0.000011027036
       0.000009992560
      -0.000049604841
       0.000002134791
       0.000006936310
      -0.000001279478
       0.000000014865
      -0.000027218139
      -0.000013503987
      -0.000004399665
      -0.000004992984
      -0.000002040998
       0.000004663484
       0.000008983502
      -0.000010454759
      -0.000000452254
       0.000001516634
       0.000017443506
      -0.000014855598
       0.000003929122
       0.000002618518
       0.000005823302
       0.000004272964
       0.000013196671
       0.000000831009
      -0.000006490990
      -0.000000783432
      -0.000005812450
      -0.000006927815
      -0.000009572670
      -0.000008035430
      -0.000004447463
       0.000046771440
      -0.000028196561
      -0.000167495736
      -0.000051988361
      -0.000149496372
       0.000017747783
       0.000056050377
       0.000053211922
       0.000013422226
       0.000023088309
      -0.000052403304
       0.000050828814
      -0.000091855551
      -0.000065067088
      -0.000000644415
      -0.000017216386
       0.000022595417
      -0.000022665668
      -0.000012183291
       0.000026929498
       0.000075187036
       0.000052394374
       0.000034674380
#
# The atomic numbers and current coordinates in Bohr
#
  40    -0.0357392    3.8476574    2.4553739 
  40    -0.1471047   -4.5747704   -2.1961442 
  40     2.8029672   -2.6356281    3.3367479 
  40    -2.8863596    1.8950875   -3.0981349 
  40     3.6031188    0.8409781   -2.7509350 
  40    -3.6673004   -1.5284992    3.1245209 
   8    -3.1302113    1.6115069    0.8353819 
   8     3.1540019   -2.3188935   -0.5218422 
   8    -0.8236181   -3.7708562    1.5724880 
   8     0.7354521    3.2068690   -1.3801664 
   8    -0.1557904   -0.8844933   -3.5456928 
   8     0.1023498    0.1871880    3.9161047 
   8    -2.6706006    4.6666782    5.6248121 
   8    -2.3218471    7.1342915    1.1285649 
   8     2.8705788    3.9750615    5.6138780 
   8     3.1028946    6.6820118    1.5084543 
   8    -3.3003758   -7.2462480   -1.0608453 
   8    -3.1428347   -4.5324281   -5.1510883 
   8     2.0670469   -7.8865207   -0.8357327 
   8     2.4363618   -5.4459219   -5.3549435 
   8     1.2250856   -4.3193143    6.8628039 
   8     4.7273040    0.1081307    5.8566081 
   8     3.6364914   -6.7553768    2.9885370 
   8     7.1371766   -2.7900675    2.6234818 
   8    -6.9140108    0.8931591   -2.3057814 
   8    -4.1575591    5.8606004   -2.5292414 
   8    -4.3756822   -0.5702866   -6.2811612 
   8    -1.3631236    3.8730663   -6.4610534 
   8     2.8309700    3.0024706   -6.3072829 
   8     5.5148885    3.5303841   -0.0740290 
   8     4.8505964   -1.9349291   -5.7484886 
   8     7.9669223   -0.8507288   -1.1037679 
   8    -7.5855694   -0.4979767    1.7091060 
   8    -4.9453910    1.0788088    6.1794431 
   8    -5.6303839   -5.0166234    1.7851054 
   8    -3.0111557   -3.7129073    6.6656012 
   6    -4.3107889    3.3198449    6.7427672 
   6    -3.7015489    7.4636999   -0.8016297 
   6     4.2144905    2.3112006    6.6802600 
   6     5.0904760    5.8484637    0.5042536 
   6    -5.0232441   -7.0114434    0.5786692 
   6    -4.1097800   -2.9134392   -6.6546722 
   6     3.2323422   -8.3160930    1.2143209 
   6     4.1672643   -4.1376727   -6.3877086 
   6    -1.0094128   -4.5262022    7.7065756 
   6     8.5797169   -2.1663169    0.8587378 
   6    -8.2705515    0.4939391   -0.3539196 
   6     0.8866846    4.0116216   -7.2782674 
   1    -4.8344219   -3.6757398   -8.5104444 
   1     3.9905096  -10.2892176    1.4860743 
   1     5.0937605    2.8422217    8.5496477 
   1    -4.6228351    9.3744158   -1.0049001 
   1     5.2001363   -5.0253861   -8.0249463 
   1     1.1872427    5.1495543   -9.0548716 
   1     6.6499884    7.2416144    0.0862655 
   1    10.6176146   -2.7872518    0.9742753 
   1    -6.1795090   -8.7533583    1.0026460 
   1   -10.3217652    1.0620466   -0.5033334 
   1    -5.3047001    4.2089707    8.4045531 
   1    -1.2409134   -5.5347189    9.5694932 
  13    11.5824355   -1.7762854   -7.9714318 
  13     9.8407030    0.7151346   -3.8816941 
   1    10.6843847    1.2620873   -7.3690944 
   1     7.1459183    2.1955804   -4.5524980 
   1    10.7563069   -2.4250934   -4.8190701 
   1    14.6253621   -1.9964171   -8.1352331 
   1     9.6206651   -3.2743016   -9.7817466 
   1    12.1866527    2.1788206   -2.5866932 
