Corrected dielectric energy   =     -0.008601840
Total C-PCM charge            =     -0.000000000
C-PCM corrected charges:
     0.000417932
    -0.000279495
    -0.000535778
    -0.002096183
    -0.001669651
     0.000008600
     0.000273183
    -0.000656386
     0.000693975
    -0.000000021
    -0.001058565
    -0.001855968
    -0.000195183
     0.000258440
    -0.002095391
    -0.000125999
    -0.000351164
    -0.000643387
     0.000002143
     0.000367990
    -0.000000325
     0.000840179
     0.001121813
     0.000000041
     0.000018584
    -0.002150750
    -0.000001029
    -0.000871960
     0.000843995
     0.000445029
    -0.000093286
     0.000314193
    -0.001699887
    -0.001777427
    -0.000123311
     0.000792253
    -0.000795189
     0.000001368
    -0.000000010
    -0.003516157
    -0.002551513
    -0.000948040
    -0.000755950
    -0.000451425
    -0.000015833
     0.000048260
    -0.000216451
    -0.000937115
    -0.001183734
    -0.000349916
    -0.001348289
     0.000721790
     0.000008363
    -0.002547825
    -0.001909130
     0.000034262
    -0.000519671
    -0.000000045
     0.000318981
    -0.000000001
    -0.000927021
    -0.000000004
    -0.000369646
     0.000870248
     0.000874043
    -0.000422121
    -0.000000008
    -0.001338877
    -0.001459789
    -0.001139082
    -0.001190968
    -0.001094274
    -0.000548643
    -0.000787838
    -0.000162923
    -0.000000000
     0.000476440
     0.000396627
     0.000832824
     0.000003721
    -0.001495170
    -0.001937188
    -0.000966917
    -0.000923794
    -0.001828449
    -0.000409190
    -0.000993423
     0.000678727
     0.000471860
    -0.000102187
     0.000007774
     0.000282409
     0.000567760
    -0.001253541
    -0.000000150
     0.000250589
    -0.000000013
    -0.000093828
    -0.000001894
     0.000528357
    -0.001100993
    -0.000009975
    -0.001363340
    -0.000672827
     0.000004962
     0.000115283
    -0.000000031
     0.000143360
    -0.000132687
    -0.002474634
    -0.001801969
    -0.001134818
    -0.000614244
    -0.000582602
     0.000408219
    -0.001382447
     0.000470946
     0.000000077
     0.000105526
    -0.000000002
    -0.001048992
    -0.001429525
     0.000094466
     0.000170768
     0.000087684
    -0.001935693
    -0.001209607
    -0.001448074
    -0.000353595
    -0.001943741
    -0.000436338
    -0.000000009
     0.000701842
    -0.001282946
     0.000021486
    -0.000653279
     0.000647026
    -0.000069185
    -0.000269990
    -0.000054096
     0.000357159
    -0.000000287
    -0.000014802
    -0.001736155
    -0.000594843
    -0.001917157
    -0.000002779
    -0.000110071
    -0.000000003
    -0.002197839
    -0.001173177
    -0.000656008
    -0.000000001
    -0.000572626
     0.000573332
    -0.000000325
    -0.000000573
    -0.000018489
    -0.000818534
    -0.001385193
    -0.001645231
    -0.000548222
     0.000526064
    -0.000415347
    -0.000132670
     0.000285399
    -0.000000019
     0.000101298
    -0.000000001
    -0.000325822
    -0.000979971
     0.000776395
     0.000005551
     0.001149641
    -0.000399156
    -0.000000016
    -0.000000002
    -0.000000111
    -0.000000035
    -0.001196365
     0.000435852
    -0.001201221
     0.000665782
     0.000418522
    -0.001365452
    -0.001348031
     0.000431953
    -0.001230793
     0.000240593
    -0.001892313
    -0.002077579
    -0.000989929
    -0.000670900
    -0.002100253
    -0.001453233
    -0.000625703
     0.000464667
    -0.000362660
    -0.001430765
     0.000000880
    -0.000456921
    -0.001577060
     0.000483213
    -0.000000613
    -0.000973502
     0.000000502
     0.000887079
    -0.000001677
     0.000943704
     0.000295893
     0.000921436
    -0.000000021
     0.000936339
    -0.000375600
     0.000002656
    -0.000000006
     0.000046808
    -0.000116954
     0.000261216
    -0.000133579
    -0.000562280
    -0.000000026
     0.000047126
     0.000277917
     0.000815921
    -0.002232069
    -0.000994302
    -0.000562972
    -0.001620718
    -0.000729900
    -0.000091456
    -0.000000562
    -0.000000029
     0.000013025
    -0.000022849
     0.000000034
     0.000910458
    -0.000468810
     0.000928041
    -0.000607623
    -0.000158039
     0.000052818
    -0.001829721
    -0.001404824
    -0.000096723
     0.000121588
     0.000077787
    -0.002074811
    -0.000443673
     0.000012173
    -0.000000261
    -0.000704514
     0.000258200
     0.000138640
    -0.002200593
    -0.001592397
     0.000736988
    -0.000356607
     0.000650885
    -0.000000069
    -0.000550996
    -0.002124945
    -0.001245787
     0.000671472
    -0.000465392
    -0.000226247
     0.000835481
    -0.001155241
    -0.000000034
    -0.002754247
    -0.000081363
    -0.000000033
    -0.000000007
     0.000726016
    -0.000000000
     0.001006152
    -0.001694382
    -0.000125337
    -0.000676182
     0.000753062
     0.000932819
    -0.002304232
    -0.001121814
    -0.001418510
    -0.001511406
    -0.001224876
    -0.001236752
     0.000343625
    -0.000970612
     0.000006879
    -0.001276439
     0.000000006
    -0.000000000
     0.000000624
     0.000493998
    -0.001157456
     0.000058887
     0.000226635
    -0.000125112
    -0.001496785
    -0.001912406
    -0.001184612
    -0.001032319
     0.001047058
    -0.000919662
     0.000462177
     0.000543902
     0.000047084
    -0.000002122
    -0.000746379
     0.000011893
    -0.000828859
    -0.001707011
    -0.000670150
     0.000425229
    -0.001470543
     0.000599099
     0.000557188
    -0.000561755
    -0.000376424
    -0.000703587
    -0.000880168
    -0.000025615
    -0.001750346
    -0.000739065
    -0.000206538
    -0.000918597
     0.000000283
    -0.000000006
    -0.003325056
    -0.000002356
    -0.002219177
    -0.002005440
     0.001078550
    -0.000000018
     0.000002022
    -0.000515186
    -0.001174707
    -0.001496586
    -0.001689359
     0.000149849
    -0.000023662
     0.000365973
    -0.000000001
    -0.001844543
    -0.000921357
     0.000051198
    -0.000232273
     0.000337280
    -0.000035402
     0.000018664
    -0.001508313
     0.000038088
    -0.000619757
    -0.001237477
    -0.000949527
     0.000642484
    -0.000463242
    -0.000888342
    -0.000088457
    -0.001339576
     0.000328475
    -0.000024872
    -0.000000500
    -0.000206099
    -0.000011949
    -0.000469590
     0.000957293
    -0.000791830
    -0.000000050
    -0.000860710
    -0.001104039
    -0.000106631
    -0.000258675
    -0.001377696
     0.000504494
     0.000210495
    -0.001234457
    -0.000005193
    -0.000459358
    -0.000000107
     0.000000132
    -0.000000000
    -0.000380392
    -0.000269743
     0.000449285
    -0.001872146
    -0.001424656
    -0.000955422
     0.000713709
    -0.000000001
    -0.002049368
    -0.000830732
     0.000262389
    -0.001224229
    -0.000956961
    -0.000577160
    -0.001484672
    -0.001757421
     0.000682244
    -0.000000004
     0.000018237
    -0.001061326
     0.000951447
    -0.001483783
    -0.001862530
    -0.000111827
     0.000183817
     0.000646528
    -0.000511425
    -0.001383462
     0.000203099
     0.000720319
    -0.001045815
    -0.001679826
    -0.001286939
    -0.001329108
     0.000000776
     0.000143584
     0.000144633
     0.000447247
     0.000007707
     0.000002256
    -0.000000010
     0.000505021
    -0.000597395
     0.000468478
    -0.000951516
    -0.000989453
    -0.001024337
    -0.000466389
    -0.001503061
    -0.001043442
     0.000000820
    -0.000326578
    -0.000571001
    -0.000307189
    -0.002046962
    -0.000000002
    -0.000056894
    -0.000502548
    -0.000582728
    -0.000857298
    -0.000000043
     0.000041021
    -0.001149176
    -0.000989759
    -0.001252810
    -0.000285798
     0.000334107
    -0.001877776
     0.000456971
    -0.001539081
    -0.000031823
    -0.000124430
     0.000721988
    -0.003305226
    -0.000003532
    -0.000708888
    -0.000802526
    -0.001362696
    -0.000000010
    -0.000000225
    -0.000449085
    -0.000320107
    -0.000502662
    -0.000407823
     0.000314495
    -0.000959552
    -0.000010962
    -0.000988808
    -0.000561971
     0.000057095
    -0.000548700
    -0.000889639
    -0.000739453
    -0.000012576
    -0.003649519
    -0.000000411
    -0.001773602
    -0.000016185
     0.000382833
    -0.001911217
    -0.001030611
    -0.000128426
    -0.000001146
    -0.001285124
    -0.001431921
    -0.001320678
    -0.001422221
    -0.000161737
    -0.000000024
    -0.000186419
    -0.001415483
     0.000001249
     0.000373175
    -0.000000000
     0.000088138
    -0.000484084
    -0.000016886
    -0.001076879
    -0.001632630
    -0.001367957
    -0.001599208
    -0.000104765
     0.000355177
    -0.002038907
    -0.000008491
    -0.000548252
    -0.000000094
     0.000480750
    -0.000000093
    -0.000000473
    -0.000277999
    -0.000000624
    -0.000000667
    -0.001012993
    -0.001128712
    -0.001191021
     0.000011464
    -0.000000724
     0.000545340
    -0.000104987
    -0.000409569
    -0.001333178
     0.000425178
    -0.000095045
    -0.000239274
    -0.000006682
    -0.001265792
    -0.001643573
     0.000312701
    -0.000000164
    -0.000595287
    -0.001590529
    -0.001488408
    -0.000783665
    -0.000000826
    -0.002168604
    -0.002915122
    -0.001470615
    -0.000895150
     0.000245368
    -0.000467423
    -0.000998860
     0.000012360
    -0.001273208
    -0.000002241
    -0.000000592
    -0.000932680
    -0.000000019
    -0.000323461
     0.000486923
    -0.001438060
    -0.000255167
     0.000036407
    -0.001316666
    -0.000032082
    -0.000192729
    -0.000289803
    -0.001463857
     0.000483134
    -0.000071947
    -0.000004861
    -0.002589861
    -0.001512864
    -0.000247017
    -0.001112449
    -0.000766130
     0.000279845
    -0.000348880
    -0.000537683
    -0.000773536
     0.000823059
    -0.000000026
    -0.000000018
    -0.000359974
    -0.000440162
    -0.000001401
    -0.001124191
    -0.001630479
    -0.001211605
    -0.001328209
    -0.000000102
    -0.000229258
    -0.001409306
    -0.000708579
    -0.000084854
    -0.000354611
    -0.001155332
    -0.000945625
    -0.001346571
     0.000823610
    -0.000001066
     0.000238322
     0.000139899
    -0.000812063
     0.000218114
    -0.000000001
    -0.001355062
    -0.000044778
    -0.000774907
    -0.000540957
    -0.000193017
    -0.000047202
    -0.000000005
    -0.000000013
    -0.000467113
    -0.000000804
    -0.000906079
    -0.000250607
    -0.000000000
    -0.000917040
    -0.000000015
    -0.000004631
     0.000898703
    -0.000005175
    -0.000055545
     0.000003706
    -0.000000012
    -0.000001453
     0.000000018
    -0.000578201
    -0.000000075
    -0.000949121
    -0.000000076
    -0.000001332
     0.000021205
    -0.000000609
    -0.000008206
    -0.000125064
    -0.000003289
     0.000088566
    -0.001307027
    -0.000228562
    -0.000549747
     0.000649804
    -0.000038751
    -0.000689765
    -0.000103265
    -0.000485663
    -0.000410031
    -0.000075358
    -0.001143313
    -0.002175574
    -0.000086093
     0.000000021
    -0.000000028
    -0.000604704
    -0.000797236
     0.000097394
    -0.001340834
    -0.000142886
    -0.000000003
    -0.000758416
    -0.000133964
    -0.000795667
    -0.000002492
    -0.000144979
    -0.000000002
     0.001172258
    -0.000974296
    -0.000000001
     0.000534365
     0.000878275
    -0.000005487
    -0.001389340
    -0.000000001
    -0.000000019
     0.000487962
    -0.000000001
    -0.000748678
    -0.000470782
    -0.002063302
     0.000785902
    -0.000000001
    -0.000478518
    -0.000000811
     0.000000948
    -0.001214813
     0.000587282
    -0.004151602
     0.000703102
    -0.000000254
    -0.000000208
     0.000186081
    -0.000473523
     0.001311231
    -0.000029519
     0.000541812
    -0.001173196
    -0.000782803
    -0.001169853
    -0.000131356
    -0.000000001
    -0.000026182
    -0.000000158
    -0.000846228
    -0.000205214
    -0.000011611
     0.000977863
    -0.000623143
    -0.003584908
    -0.000013118
     0.001104320
    -0.000002319
    -0.000627887
     0.000000080
    -0.000566757
     0.000091254
    -0.000574800
    -0.000000608
    -0.000000731
    -0.000185750
    -0.001015580
     0.000079392
    -0.000000000
    -0.000666036
    -0.000231938
     0.000631409
     0.000051837
    -0.000000036
    -0.000110750
     0.001146719
    -0.001073036
    -0.000378638
     0.000183948
    -0.000052720
    -0.001546391
    -0.000113758
    -0.000025106
     0.000204928
    -0.000078378
    -0.000216017
    -0.000291772
    -0.000485159
    -0.000235384
    -0.000000001
    -0.001279125
    -0.001527037
    -0.001559026
    -0.000002075
    -0.001074700
    -0.001389610
    -0.000433978
    -0.001206275
    -0.000000004
    -0.001309338
    -0.000409152
    -0.000000006
    -0.001053810
    -0.000016937
    -0.001026271
     0.000208682
     0.000123735
    -0.000488393
    -0.001339954
    -0.001384867
    -0.000130973
    -0.000139172
    -0.001694843
    -0.001659747
    -0.001098695
    -0.001222799
    -0.000000007
    -0.001368900
    -0.001454081
    -0.000008859
    -0.000013484
    -0.001686072
    -0.001319756
    -0.000745529
    -0.000657057
    -0.001290744
    -0.001278333
    -0.000001796
    -0.000535511
    -0.000054141
    -0.000110243
    -0.000594943
    -0.001427364
    -0.000636380
    -0.000164448
    -0.000020447
    -0.000528758
    -0.000933508
    -0.000458305
    -0.000623695
     0.000052960
    -0.000168596
    -0.000636084
     0.000356336
    -0.000268128
    -0.001068764
     0.000428352
    -0.000567530
    -0.001487308
    -0.000478930
    -0.000970638
     0.000140919
    -0.000036865
    -0.000281221
    -0.001110142
     0.000000076
    -0.000586144
     0.000180739
     0.000310358
    -0.000000487
     0.000105325
    -0.000652449
    -0.000029275
    -0.001164539
    -0.000006488
    -0.002478513
    -0.000001366
    -0.000001881
     0.000238100
    -0.000000236
    -0.000261203
     0.000005638
    -0.001297418
     0.000372334
     0.000407132
    -0.000916440
    -0.000445879
     0.000024396
    -0.000989205
     0.000356376
    -0.000308715
    -0.000000001
    -0.001177036
     0.000065330
    -0.000000739
    -0.000643745
    -0.000001099
    -0.000000071
    -0.000000905
    -0.000001011
    -0.000718972
    -0.000000043
    -0.000000024
     0.000669315
    -0.000001735
    -0.001481918
     0.000243484
     0.000304663
    -0.000412653
     0.000484258
    -0.001341469
    -0.000272158
    -0.000863528
    -0.000000064
    -0.000621556
    -0.001125771
    -0.000001534
    -0.000007777
    -0.000000496
    -0.001133873
    -0.000304839
    -0.001253317
    -0.000256143
    -0.000477332
    -0.000000284
     0.000521866
    -0.000141302
    -0.000002640
    -0.001242495
    -0.000004025
    -0.002078410
    -0.000000341
    -0.000533550
    -0.000615167
     0.000495142
    -0.000949646
    -0.000804973
    -0.000695849
     0.000555133
    -0.000000001
    -0.001517574
    -0.001194950
    -0.000280151
     0.000181564
    -0.001234382
    -0.001873976
     0.000671685
    -0.000082451
    -0.001349585
     0.000464704
    -0.001294619
    -0.000002128
    -0.000002667
    -0.001172025
    -0.001378091
    -0.000000082
     0.000191757
     0.000442829
    -0.000933867
    -0.000000120
    -0.001087964
    -0.000403743
    -0.000000000
    -0.000250960
     0.000087661
    -0.001884799
    -0.001451571
    -0.002019364
    -0.000008629
    -0.000336086
    -0.000743441
    -0.000404615
    -0.000001746
    -0.001377292
    -0.001828397
    -0.001179707
    -0.000126515
     0.000023684
    -0.001830461
    -0.000928781
    -0.002307403
    -0.000602936
    -0.000359424
    -0.001231636
    -0.000000017
    -0.002412149
    -0.000989703
    -0.002000585
    -0.000078848
    -0.000000009
    -0.001725879
    -0.000828118
    -0.002385887
    -0.000173068
    -0.000557668
    -0.000653061
    -0.001899661
    -0.002159172
    -0.001104022
    -0.001306699
    -0.000251364
    -0.001704768
    -0.001359820
    -0.001546919
    -0.000000013
    -0.002167404
    -0.001130188
    -0.002299659
    -0.000021714
    -0.000000073
    -0.003744134
     0.000000066
     0.000229948
     0.000134484
    -0.000353265
    -0.000306024
    -0.000669465
    -0.000617804
    -0.000700189
    -0.000720386
    -0.000045388
    -0.000836990
    -0.001203865
    -0.000623660
    -0.001049871
    -0.000000615
    -0.000000003
     0.000159998
    -0.000164010
    -0.001624890
     0.000390200
    -0.001025341
    -0.000233117
    -0.000882741
    -0.000662813
    -0.000034495
    -0.001034981
    -0.000895373
    -0.001896067
    -0.000752863
    -0.001020957
    -0.000035699
     0.000365780
    -0.002386735
    -0.000053398
    -0.001160423
    -0.001419891
    -0.000000096
    -0.001350608
     0.000479783
    -0.000026155
    -0.001510745
    -0.000000121
    -0.002578599
    -0.000036595
     0.000152939
    -0.000689877
    -0.000000626
    -0.000418623
    -0.001169983
    -0.001059212
    -0.001205580
    -0.000912960
     0.000052146
    -0.000627511
    -0.000436873
    -0.000000001
    -0.001661086
    -0.000725983
     0.000016197
    -0.000866278
    -0.000064492
    -0.000649266
    -0.000230245
    -0.001855963
    -0.000567304
    -0.001972867
    -0.000068068
    -0.000004102
    -0.001556592
    -0.000000002
     0.000431598
    -0.000006756
    -0.001859226
    -0.001564520
    -0.000000163
    -0.000991570
     0.000009844
    -0.000004236
    -0.000000000
    -0.000233352
    -0.002324787
    -0.000956154
     0.000335075
    -0.001871334
    -0.000000205
    -0.001570947
    -0.000410342
    -0.002366695
    -0.000269411
    -0.001071707
    -0.002340080
    -0.000037532
    -0.002370741
    -0.000779587
    -0.001949293
    -0.000877128
    -0.000000024
    -0.001257203
    -0.000016220
    -0.000171718
    -0.000000013
    -0.000115024
    -0.000018274
    -0.002225092
    -0.000421701
    -0.001457379
    -0.000743345
     0.000061307
    -0.001430728
    -0.002710612
     0.000040714
    -0.000042980
    -0.000000006
    -0.000693965
    -0.000180626
    -0.000000005
    -0.000889041
     0.000172663
    -0.001685159
     0.000343907
    -0.001751412
    -0.000000980
    -0.000857083
    -0.001151520
     0.000392536
    -0.000084723
    -0.000270025
    -0.002179993
    -0.000575539
    -0.001418782
    -0.000945734
    -0.000085412
    -0.001822549
    -0.000757028
    -0.001551491
    -0.001296635
    -0.000542903
     0.000171191
    -0.000683603
    -0.000124237
    -0.000739379
    -0.001203583
    -0.000000003
     0.000426342
    -0.001258501
    -0.000459139
     0.000517580
    -0.001806046
    -0.000000277
    -0.000801596
    -0.001520325
    -0.000378407
    -0.001479352
    -0.000457201
    -0.001457732
    -0.000000087
    -0.001659594
    -0.001676569
    -0.000551584
    -0.000000416
     0.000733289
    -0.000000028
     0.000000711
    -0.000000011
    -0.000660317
     0.000005058
     0.000323273
    -0.000727222
    -0.001119866
     0.000125484
     0.000057460
    -0.000235847
     0.000443902
    -0.001189524
    -0.000137493
    -0.001417543
    -0.002110923
     0.000193891
    -0.000921766
    -0.001613251
    -0.000958193
     0.000505953
    -0.001664400
    -0.000000001
    -0.000278233
    -0.001616524
    -0.000615867
    -0.000106757
    -0.001593542
     0.000332556
    -0.000539232
    -0.000941978
    -0.001011042
    -0.001058760
    -0.001062854
     0.000256045
    -0.000000333
    -0.000518116
     0.000625624
    -0.000054971
    -0.000756221
     0.000222327
    -0.000511602
    -0.000000123
    -0.001597229
    -0.001669371
    -0.001660168
    -0.001702341
    -0.000075732
     0.000066527
    -0.002183137
    -0.000514913
     0.000279846
    -0.001478865
     0.000215585
    -0.000848266
    -0.001888557
    -0.000000716
    -0.000002320
    -0.001556155
    -0.001908763
    -0.001870013
    -0.001997350
    -0.000072828
    -0.000000005
    -0.000000196
    -0.000704551
    -0.000292301
     0.000626864
     0.000214510
    -0.000316983
    -0.000505703
     0.000516380
     0.000490928
     0.000318296
    -0.000722916
    -0.000242939
    -0.001832366
    -0.002290854
    -0.000082241
    -0.001213044
    -0.000365177
    -0.000000044
    -0.000201239
    -0.001781842
    -0.001900010
    -0.000033626
    -0.000000001
     0.000688739
     0.000275972
    -0.001084247
    -0.000566494
    -0.000000010
    -0.000056956
    -0.000000000
    -0.000985600
    -0.000086608
    -0.000000693
    -0.000000001
    -0.001895661
    -0.001974959
    -0.000768786
    -0.000686919
    -0.000326187
     0.000665728
     0.000768163
    -0.000000201
    -0.000132208
    -0.000952739
    -0.000000336
     0.000602949
    -0.001991121
    -0.000370667
    -0.001573567
    -0.002211515
    -0.001338508
    -0.001025170
    -0.003081540
    -0.002021049
    -0.000078503
    -0.001520321
    -0.000003906
    -0.000392256
    -0.001397248
    -0.000905966
    -0.002259819
     0.000446746
    -0.001007717
    -0.001850433
    -0.000122611
    -0.000000024
     0.000086152
    -0.000000058
     0.000030936
     0.000798553
     0.000598072
     0.000002519
    -0.000000044
     0.000226944
    -0.001922190
     0.000068224
     0.000002199
    -0.000852773
     0.000087945
    -0.001451082
    -0.000570233
    -0.001104879
     0.000291463
    -0.000226899
    -0.000813130
    -0.001453548
    -0.000749177
    -0.000993699
    -0.001866741
     0.000500237
    -0.000665779
    -0.000000762
    -0.002132217
    -0.000501469
    -0.001341426
    -0.001423936
    -0.001878428
    -0.001693436
    -0.001825897
     0.000007124
    -0.001211416
    -0.000000006
    -0.000812803
    -0.001187688
    -0.000814348
    -0.000277100
    -0.001123206
    -0.001392539
    -0.000001469
    -0.001594979
    -0.001549127
    -0.000000000
     0.000095465
     0.000006753
    -0.000000003
     0.000010186
     0.000068728
     0.000144190
    -0.000454963
     0.000658186
     0.000710107
     0.000658039
    -0.000001247
     0.001806542
     0.001588530
    -0.000008003
     0.001310575
    -0.000000986
    -0.000007570
     0.001294558
     0.000975525
     0.001475249
     0.001454784
     0.001398779
     0.001526731
     0.001283769
     0.001590505
     0.001318591
     0.001433373
     0.001174047
     0.000054935
     0.001471191
     0.001104683
    -0.000000176
     0.001284302
     0.001263715
     0.002119377
     0.001786774
     0.001450312
    -0.000010241
     0.001795255
    -0.000003072
     0.001852893
     0.001543701
    -0.000000004
     0.001700209
     0.001626838
     0.000314329
     0.001479858
    -0.000016271
     0.001651946
    -0.000001165
     0.001342346
     0.001337250
     0.001866500
     0.001606226
     0.001894364
     0.001257695
    -0.000000028
     0.000044890
     0.001398130
     0.002094306
     0.001330021
     0.000139195
    -0.000000020
     0.001681150
     0.001986220
     0.001498465
    -0.000006971
    -0.000003737
     0.001796053
     0.001678368
     0.001647787
     0.000597137
     0.000041425
     0.000786589
     0.001948055
     0.002071633
     0.001849340
     0.001596159
    -0.000000001
    -0.000000027
     0.001649900
     0.000001201
     0.001601156
     0.000148817
    -0.000000999
     0.001005921
    -0.000000008
     0.000141495
     0.001585108
    -0.000002096
     0.001368760
     0.001292017
     0.001224070
     0.001153139
     0.002179893
     0.001796536
     0.001944422
     0.001613411
     0.002242652
     0.002178814
     0.001603282
     0.001508228
    -0.000000246
     0.000013987
     0.001888463
    -0.000000442
     0.001953257
     0.000048446
     0.000060518
     0.000586148
     0.001867107
    -0.000000001
     0.001696891
    -0.000000329
     0.000500993
     0.001889101
     0.002041987
     0.001787941
    -0.000000002
     0.001929310
     0.001722923
     0.001556412
     0.001381832
     0.002110810
     0.001861008
     0.001719156
     0.001490764
     0.000896390
     0.001679769
     0.001824330
     0.001387718
     0.001003469
     0.001809689
    -0.000001910
     0.000000043
     0.001332441
     0.000163738
     0.000555219
     0.000805103
     0.001663356
     0.001536364
     0.001340579
     0.002094028
     0.000089039
     0.000474957
     0.001554005
     0.001532201
    -0.000000003
     0.001118076
     0.001081308
     0.001261228
     0.001229109
     0.000000900
     0.000032729
     0.001714260
    -0.000000026
    -0.000001297
     0.001205044
     0.001727999
     0.001583675
     0.001895293
     0.001802004
    -0.000000661
     0.000225014
     0.001672850
     0.001927921
    -0.000000024
     0.000015597
     0.001461875
     0.001408204
     0.001927291
     0.002106399
    -0.000000005
    -0.000002338
     0.001706239
     0.001616304
    -0.000008586
     0.000375809
     0.001403816
     0.001310837
     0.001749631
     0.001689800
    -0.000000029
     0.001745276
     0.001773771
     0.000115306
     0.001974247
     0.001547580
     0.001445697
     0.001655409
     0.001889925
     0.001053794
     0.001869357
    -0.000008183
     0.001728196
    -0.000001732
    -0.000000005
     0.001559948
     0.000401659
     0.001276311
     0.001720402
     0.000637709
     0.000820039
     0.000252215
     0.001467731
    -0.000002605
     0.001085729
     0.001830245
    -0.000009913
     0.001626556
     0.000090458
     0.000777591
    -0.000000054
     0.000068386
    -0.000000004
     0.001465325
     0.001824447
     0.001564012
     0.001897434
     0.001188251
     0.001391412
     0.001280591
     0.001474414
     0.001396031
    -0.000000056
     0.000665695
     0.001530231
    -0.000000000
     0.000052208
     0.001574403
     0.001872459
     0.002020638
     0.001843523
     0.001771272
     0.001944312
    -0.000000067
     0.002287833
     0.000239183
     0.001663243
    -0.000011553
     0.001047856
     0.002173114
    -0.000000869
     0.001517560
     0.001430552
    -0.000000097
     0.001761215
     0.000155480
     0.001343259
     0.001867807
     0.001579334
     0.001857382
     0.001531903
     0.000272714
    -0.000000018
     0.001366797
     0.001919425
     0.001842989
     0.001323286
     0.001542358
     0.001821676
     0.001920449
    -0.000000021
     0.000360742
     0.001918956
     0.002267133
    -0.000018306
    -0.000013940
    -0.000002475
    -0.000000001
    -0.000000038
    -0.000000006
    -0.000000352
    -0.000000221
    -0.000000007
    -0.000000007
    -0.000000002
    -0.000001089
    -0.000087388
    -0.000000105
    -0.000000004
    -0.000000060
    -0.000000001
    -0.000011352
    -0.000000222
    -0.000000002
    -0.000000022
    -0.000000001
    -0.000016161
    -0.000002309
    -0.000014836
    -0.000093165
    -0.000001026
    -0.000000043
    -0.000001476
    -0.000088585
    -0.000014125
    -0.000192021
    -0.000000007
    -0.000179919
    -0.000002798
    -0.000011354
    -0.000187998
    -0.000198388
    -0.000019335
    -0.000002709
    -0.000526190
    -0.000000008
    -0.000664212
    -0.000476276
    -0.000279452
    -0.000475045
    -0.000272370
    -0.000000207
    -0.000000001
    -0.000003775
    -0.000000021
    -0.000001695
    -0.000248600
     0.000060637
    -0.000000004
    -0.000001834
    -0.000263505
    -0.000139888
     0.000499223
     0.000689107
     0.000548944
     0.001546590
    -0.000022224
     0.001123108
    -0.000001153
     0.001589525
    -0.000001102
     0.001329976
     0.000528628
     0.001225093
    -0.000008867
     0.001334572
     0.000953511
     0.001206838
     0.001332054
     0.001017692
     0.001202463
     0.000902287
     0.001088881
     0.001243063
     0.000468334
     0.001080233
     0.001409840
     0.001691324
     0.001340898
     0.001192479
     0.001445905
     0.001449003
    -0.000001107
     0.001420292
     0.001510005
    -0.000011001
     0.001320678
    -0.000000173
     0.001304269
    -0.000001882
     0.001540627
     0.001500121
    -0.000000757
    -0.000000001
     0.001206125
     0.000306255
    -0.000010300
     0.001292985
     0.001585494
     0.001005945
     0.001458868
     0.001248115
    -0.000006982
    -0.000004814
     0.001059441
     0.001606849
     0.000144574
     0.001433654
    -0.000000002
     0.001519074
     0.001169513
    -0.000003340
     0.001624397
    -0.000009648
     0.001321685
     0.001572694
    -0.000000006
     0.000369233
    -0.000017737
    -0.000138286
     0.001294781
     0.000031251
     0.001006014
    -0.000138384
     0.000978636
    -0.000000177
    -0.000000001
    -0.000023484
    -0.000000609
    -0.000031045
    -0.000369354
     0.000031827
     0.001237630
     0.000870887
     0.001159271
    -0.000270210
     0.000365439
    -0.000000019
     0.000656891
    -0.000030608
     0.001047851
     0.001262197
    -0.000369194
    -0.000026110
    -0.000003441
     0.000920568
    -0.000001786
    -0.000296744
     0.001001115
     0.000531330
     0.000139824
    -0.000000005
     0.001190428
     0.000456028
     0.000950996
    -0.000031855
    -0.000513287
    -0.000003359
     0.000096806
     0.000363653
    -0.000090286
    -0.000004783
     0.000398399
     0.000738530
     0.000222887
     0.000499026
     0.000345415
    -0.000203837
    -0.000000013
    -0.000127303
    -0.000440679
    -0.000018944
     0.000949385
    -0.000754331
     0.000592032
    -0.000000002
    -0.000000179
    -0.000000001
    -0.000027728
     0.000230896
    -0.000390087
    -0.000435061
    -0.000195004
    -0.000000005
    -0.000361456
     0.000139042
     0.001015373
    -0.000030314
     0.000949968
    -0.000282064
    -0.000001275
    -0.000000058
    -0.000184024
    -0.000351507
     0.000282805
    -0.000014785
    -0.000057681
    -0.000000042
     0.000085337
     0.000601183
    -0.000324949
     0.000665265
    -0.000000185
    -0.000117053
    -0.001362370
    -0.000464417
    -0.000000001
    -0.000168298
    -0.000003585
    -0.000006451
    -0.000521301
    -0.000000001
    -0.000471101
    -0.000486809
    -0.000000001
     0.000668389
    -0.000001157
    -0.000038058
    -0.000987883
    -0.000000023
     0.000463691
    -0.000277841
    -0.000153516
    -0.000203046
    -0.000008224
    -0.000001342
     0.001609247
    -0.000335384
     0.001286761
    -0.000405096
    -0.000000016
    -0.000976572
    -0.000000121
     0.001284924
    -0.000002115
     0.001080969
    -0.000000224
     0.000942200
    -0.000301245
     0.000368343
    -0.000000015
     0.001586562
     0.001564853
     0.001482792
     0.001196091
    -0.000034844
     0.001635491
    -0.000004839
    -0.001087960
     0.000571999
     0.001502463
     0.001056287
    -0.000340725
     0.001710917
     0.001574824
     0.001391687
    -0.000469829
     0.000912670
     0.001672245
     0.001372421
     0.001303064
     0.001112625
    -0.000000081
    -0.000002458
    -0.000205156
    -0.000011497
     0.000351113
    -0.000000001
    -0.000055023
     0.000569005
     0.000597976
     0.000659466
     0.001635401
     0.000880907
     0.000960417
     0.001312917
     0.001308276
     0.001114640
     0.000743934
     0.001323912
     0.001264862
     0.001216259
     0.001275771
     0.001027391
     0.001167891
     0.001317715
     0.000980123
     0.001212029
    -0.000000008
     0.001297961
    -0.000000747
    -0.000022235
     0.001019518
     0.000138136
     0.000991397
    -0.000006510
    -0.000010398
     0.001086977
     0.001416649
    -0.000000880
     0.000832578
     0.001475129
     0.001120363
    -0.000027035
     0.000018917
     0.001461597
     0.001069955
    -0.000000082
     0.001521369
    -0.000018940
     0.001507139
     0.001524370
     0.001010985
    -0.000001275
     0.001465296
     0.000016906
    -0.000000030
     0.000980089
     0.001537191
     0.000622594
     0.001163859
     0.001133719
     0.001224935
    -0.000000055
    -0.000012236
     0.001283301
     0.001386990
     0.001199331
    -0.000000009
     0.001310061
     0.000045756
     0.001256055
     0.001260040
    -0.000001070
     0.000135898
    -0.000445263
    -0.000261212
    -0.000329585
    -0.000000007
    -0.000031924
    -0.000000004
    -0.000483737
    -0.000136292
    -0.000000004
     0.000252173
    -0.000131299
    -0.000550177
    -0.000236278
    -0.000010349
    -0.000705893
    -0.000659820
    -0.000035629
    -0.000000002
    -0.000797746
    -0.000002523
     0.000001094
     0.000423424
    -0.000333589
     0.000495021
    -0.000000002
    -0.000000114
    -0.001365766
    -0.000001484
    -0.000369944
    -0.000614240
    -0.000000001
     0.000468814
     0.000029947
     0.000017596
     0.001640469
     0.001440966
     0.001804143
     0.001693570
    -0.000000106
     0.001131431
    -0.000001425
     0.001339801
    -0.000005955
    -0.000003936
    -0.000008570
    -0.000002328
     0.001334805
    -0.000004477
    -0.000000197
     0.001172414
     0.000992359
     0.000934433
     0.001060734
     0.001001032
     0.001625989
     0.001373806
     0.001745465
     0.001467595
     0.001442162
     0.001366211
     0.001761640
     0.001667057
     0.000722364
    -0.000004735
     0.001749387
    -0.000012789
     0.000928525
     0.001637772
     0.001601108
     0.000939282
     0.001665035
     0.001546573
     0.001598911
     0.000903192
     0.001697336
     0.001322939
     0.001180715
     0.001500648
     0.001348411
     0.001689135
     0.001579328
     0.001380775
     0.001200418
     0.001565022
     0.001743537
     0.001189534
     0.001397419
    -0.000022410
     0.000448765
    -0.000001060
    -0.000000857
     0.000460520
    -0.000017563
     0.000672556
     0.000343333
     0.000675867
     0.001721639
    -0.000000001
     0.001364893
    -0.000016124
    -0.000004545
     0.000814307
     0.001331855
     0.001560141
     0.001233374
     0.001469071
    -0.000017241
     0.001580593
     0.000355674
     0.000844060
    -0.000000218
     0.001310357
     0.001219222
     0.001560150
     0.001497771
     0.001822356
     0.001566925
     0.000297324
     0.002010945
     0.001432526
    -0.000000037
     0.001292022
    -0.000002253
    -0.000028625
     0.000104505
     0.002026400
     0.000255123
     0.001567049
     0.001760349
    -0.000000012
     0.001578785
     0.000301687
     0.001329619
     0.001467065
    -0.000000005
     0.001876407
     0.001574564
     0.000091733
    -0.000000002
     0.000995528
     0.001550607
     0.001317405
     0.001369763
     0.002045897
    -0.000016190
     0.001876830
     0.001768727
     0.001604242
     0.001352570
     0.000661366
     0.001339768
     0.001970717
     0.001920797
     0.001598999
     0.000225749
     0.001808095
    -0.000000018
    -0.000156280
    -0.000000022
    -0.000374099
     0.000220148
    -0.001014457
    -0.000482803
    -0.000030031
    -0.000054392
    -0.000000086
    -0.000036345
    -0.000000003
    -0.000000206
    -0.000000010
     0.000060853
    -0.000510363
    -0.000052028
    -0.000002548
    -0.000001896
    -0.000230801
    -0.000000009
    -0.000009078
     0.000183514
    -0.000204189
     0.000299783
    -0.000000159
    -0.000440474
    -0.000010053
    -0.000000296
    -0.000137340
    -0.000000288
    -0.000003279
     0.000093760
    -0.000106005
     0.000143062
    -0.000001089
     0.000576845
    -0.000089432
     0.000392621
    -0.000001723
    -0.000715952
    -0.000003283
    -0.000001689
    -0.000284040
    -0.000182626
    -0.000006195
    -0.000088197
    -0.000381826
    -0.000292990
     0.000493303
    -0.000338508
    -0.000079023
    -0.000000004
    -0.000086223
    -0.000000078
    -0.000023214
    -0.000000001
    -0.000000110
     0.000093314
     0.000348797
    -0.000060374
    -0.000000002
    -0.000000001
     0.000432892
    -0.000000342
    -0.000003179
    -0.000075601
    -0.000553471
    -0.000000001
    -0.000000549
    -0.000000005
    -0.000301297
     0.000886351
    -0.001164871
    -0.000102413
    -0.000000020
    -0.000003725
    -0.000000028
    -0.000109340
    -0.000000629
    -0.000265634
    -0.000209394
    -0.000000011
    -0.001274239
    -0.000421262
     0.000437780
    -0.000000028
    -0.000823473
    -0.000000010
     0.000879719
     0.000888244
     0.000841891
     0.000282302
    -0.000000001
     0.001455559
    -0.000003219
     0.001731078
     0.001766230
     0.001867914
     0.001205365
     0.001611812
     0.002005049
     0.001896848
     0.001733437
     0.001644576
     0.000001120
     0.001496100
     0.001557246
    -0.000000021
     0.001776360
    -0.000077812
     0.002321620
    -0.000000143
    -0.000159148
     0.001897656
    -0.000000001
    -0.000504632
     0.002294617
    -0.000000030
     0.001887838
    -0.000000038
    -0.000001853
    -0.000020288
     0.000332322
     0.001296876
     0.001825272
     0.000097434
     0.002454656
    -0.000113061
     0.001751846
     0.000267471
     0.002187941
    -0.000000015
     0.000857970
     0.001755501
     0.001163121
     0.001736310
    -0.000000004
     0.001838848
     0.001930254
     0.002001442
    -0.000000547
    -0.000094424
     0.002124037
    -0.000220395
     0.001993103
    -0.000000088
    -0.000000157
     0.002093610
     0.002149200
     0.001732110
     0.001412064
     0.001898381
     0.000436115
     0.000572097
    -0.000169056
    -0.000000611
     0.000386033
     0.000849695
     0.000697389
     0.000120905
    -0.000219601
    -0.000000064
    -0.000001919
     0.000410453
    -0.000468014
    -0.000512360
    -0.000135919
     0.000167813
    -0.000320436
    -0.000035620
    -0.000004737
     0.000872716
    -0.000041237
    -0.000000589
    -0.000127256
    -0.000314042
    -0.000003245
     0.000385416
    -0.000231175
    -0.000694618
    -0.000000145
     0.000628613
     0.000606703
     0.000514508
     0.000938461
     0.001521734
     0.001469325
    -0.000000009
     0.000006084
     0.000888618
     0.001065032
     0.001092857
     0.001267654
     0.001048926
     0.001220327
     0.001243487
     0.000942762
     0.001087207
     0.001257672
     0.001200166
     0.000451058
     0.001140206
     0.000474532
     0.000002399
     0.001483353
    -0.000000045
     0.001019798
     0.001241697
     0.001302417
    -0.000014829
    -0.000000434
     0.000984771
     0.001235014
     0.000850981
    -0.000025990
    -0.000001434
     0.000913397
     0.001348227
     0.001414804
     0.000717784
     0.001021387
     0.001461283
    -0.000022363
     0.001271620
    -0.000001586
     0.001050030
    -0.000001499
     0.001473716
     0.001117069
    -0.000000035
     0.001299032
     0.000786238
     0.001319245
    -0.000000003
     0.000124321
     0.001089047
     0.001517714
     0.001213156
    -0.000001210
    -0.000028057
     0.001051807
     0.001492559
     0.001153096
    -0.000000092
    -0.000008085
