#
# Number of atoms
#
 28
#
# The current total energy in Eh
#
  -1707.303173650885
#
# The current gradient in Eh/bohr
#
       0.000002948155
      -0.000010567578
       0.000005554586
      -0.000000850689
       0.000001801503
       0.000008549223
       0.000009283945
       0.000017810209
      -0.000012202779
       0.000000535434
       0.000000736585
       0.000004127784
       0.000004124535
      -0.000008418366
      -0.000005762682
      -0.000001016848
       0.000005580612
       0.000000895431
       0.000002884332
      -0.000001590549
       0.000001141681
       0.000001981770
       0.000000805689
       0.000001875208
      -0.000005379346
      -0.000000346900
       0.000002109781
       0.000001331216
       0.000005785545
      -0.000000522508
      -0.000003109235
      -0.000002277763
      -0.000000334261
       0.000001524313
      -0.000003468960
      -0.000001517447
      -0.000004741151
      -0.000000573146
      -0.000002776264
      -0.000004975845
      -0.000006570473
       0.000000993691
       0.000000347045
      -0.000003755996
       0.000004195558
      -0.000001502358
       0.000002999753
      -0.000000874300
       0.000001137859
       0.000008344429
       0.000000014404
      -0.000002628865
      -0.000003188737
      -0.000003606653
       0.000003077103
      -0.000004934373
       0.000000652544
       0.000003702134
       0.000007887230
      -0.000000608847
      -0.000000303783
       0.000003963166
       0.000000089246
       0.000002232800
       0.000002155113
       0.000000678302
      -0.000005867378
       0.000000931270
      -0.000000857663
       0.000004000342
      -0.000000562534
       0.000002434966
      -0.000004082492
      -0.000000381080
       0.000008083466
      -0.000001796485
      -0.000007359803
      -0.000000454556
       0.000002637853
      -0.000003003659
      -0.000002664725
      -0.000005494355
      -0.000001801222
      -0.000009213143
#
# The atomic numbers and current coordinates in Bohr
#
  13     2.6441709   -7.7300442    1.1261588 
  13     3.2028341   -7.6218226    7.4527207 
  13     1.7530330   -1.7522122    2.0840191 
  13    -1.3545337   -4.0878177    6.3952606 
  13    -2.1390071    1.1610615    4.0150334 
  13    -1.6644292    0.8800670    9.8030711 
  13    -4.6606734   -3.6520682   11.3294303 
   1     0.3231578   -9.3904840    0.2922275 
   1     5.4634743   -8.0810697    0.2246263 
   1     2.7762892  -10.3921367    8.4550739 
   1     5.5728289   -5.8880585    7.9597291 
   1     2.7370299   -7.6542458    4.3083229 
   1     1.9098783   -4.6704348    0.6822370 
   1     4.2283462   -0.3566774    1.2606186 
   1    -1.1113556   -0.9696698    1.2141415 
   1    -2.6426647    2.4112480    7.3125436 
   1    -3.1537529   -1.5297412    5.2353123 
   1     0.8672387    1.4975600    4.3606741 
   1    -4.0624592    2.9160082    2.6089085 
   1    -4.3788607   -0.4735751   10.6952157 
   1    -7.5727628   -4.0769190   11.7325132 
   1    -2.4191119   -4.2271687   13.2092378 
   1    -3.8163186   -4.6427982    8.4761268 
   1     0.6243154   -5.9201945    8.1874432 
   1     1.4275119   -2.9449076    4.9419312 
   1    -2.1892175   -5.9821840    4.2308217 
   1    -0.2550480   -1.6509026    8.6853841 
   1    -0.3200929    2.3984117   11.9592449 
