Corrected dielectric energy   =     -0.007192639
Total C-PCM charge            =     -0.000000000
C-PCM corrected charges:
    -0.000004589
     0.000306330
    -0.000000000
    -0.000377310
    -0.000701888
     0.000285579
     0.000816783
    -0.002138143
    -0.000000013
    -0.002354964
     0.000508029
    -0.000342372
     0.000867445
    -0.001636646
    -0.001851955
     0.000585373
    -0.000647597
    -0.001126844
    -0.000817246
    -0.000000078
    -0.000785047
     0.000284592
     0.000005110
    -0.000857795
    -0.002104538
    -0.000023225
     0.000583973
     0.000746773
     0.000821657
    -0.001742828
    -0.000001442
    -0.000528310
    -0.001515072
    -0.000000012
     0.000000061
     0.000055104
    -0.002135700
    -0.000000703
    -0.001334367
    -0.000059210
     0.000225519
    -0.000000023
    -0.001635957
    -0.001952106
     0.000553199
     0.001093852
     0.000011139
    -0.002093286
     0.000287237
     0.000098425
    -0.000026079
    -0.001653019
    -0.000002712
    -0.000083378
    -0.000000053
     0.000001224
    -0.000000001
    -0.001838166
    -0.000500360
    -0.001275407
    -0.000706637
    -0.000998361
    -0.000542304
     0.000211127
     0.000254138
    -0.000439798
     0.000001553
     0.000545786
    -0.000000002
    -0.002427207
     0.000127621
    -0.000175433
     0.000308749
     0.000050930
    -0.000183517
     0.000041307
    -0.002060064
    -0.000266662
    -0.001053675
     0.000063530
    -0.000000107
    -0.002070559
     0.000085758
    -0.000427278
    -0.001719177
     0.000070924
    -0.000000137
    -0.001572979
     0.000312158
    -0.000400058
     0.001028251
     0.000354289
    -0.000830535
     0.000687621
    -0.000000004
     0.000322503
     0.000202914
    -0.000883297
    -0.000471332
    -0.001533449
    -0.000683370
    -0.000716026
    -0.001689696
    -0.000636044
    -0.001686701
    -0.001317763
    -0.000000007
    -0.001125552
     0.000200521
    -0.000227051
    -0.000000001
    -0.000266080
    -0.001568036
     0.000999887
     0.000008361
    -0.001197606
     0.000040183
    -0.001646882
     0.000240019
    -0.000188030
     0.000049690
     0.000468855
    -0.001483392
    -0.000721072
    -0.000333383
     0.000233626
     0.000050863
    -0.004061935
    -0.000830683
    -0.000982017
    -0.000000003
     0.000449616
     0.000732521
    -0.001606595
    -0.000000017
    -0.000549902
    -0.000829177
    -0.001475950
    -0.001112050
    -0.001818785
    -0.000796228
    -0.000180824
    -0.001145672
    -0.000001296
     0.000321927
    -0.000600029
    -0.000864311
    -0.001130349
    -0.000000001
    -0.000555652
    -0.002149140
    -0.000584105
    -0.000000587
     0.000136986
     0.000400563
    -0.001443850
    -0.000971217
    -0.000000706
     0.000498247
    -0.001619530
    -0.000000202
    -0.000711181
     0.000382436
     0.000095448
     0.000486028
    -0.000905144
    -0.000244405
    -0.000081674
    -0.002139224
     0.000000391
    -0.000199973
     0.000005916
    -0.001046318
    -0.001909856
     0.000000619
    -0.000195680
    -0.000530854
    -0.001391144
    -0.001026920
    -0.002120534
    -0.001180403
    -0.000654054
    -0.000246361
    -0.001243827
    -0.001736540
    -0.000033627
    -0.000696221
    -0.000441521
    -0.000000051
     0.000516522
    -0.000000009
    -0.000019311
    -0.002113683
     0.000299250
    -0.001365052
     0.000463026
    -0.001576232
    -0.000000003
    -0.000707607
    -0.001309883
    -0.000855332
    -0.001310846
    -0.000458690
    -0.000544954
     0.000588464
    -0.000651548
    -0.001172977
    -0.000273544
     0.000655656
     0.000005774
     0.000073259
     0.000002667
     0.000358716
    -0.000573057
     0.000812001
    -0.000387868
    -0.000556607
    -0.000271589
    -0.000591372
    -0.000010701
    -0.000690117
    -0.000000028
    -0.002347185
    -0.000673032
    -0.003059007
     0.000522387
    -0.001548512
     0.000569274
    -0.002090411
    -0.000000509
    -0.001165400
     0.000404752
    -0.001961564
    -0.000000009
    -0.001096555
    -0.000107835
     0.000353418
    -0.000337563
    -0.001141997
     0.000285364
    -0.000000002
    -0.000372325
    -0.000000093
    -0.001108846
     0.000596913
    -0.001771528
    -0.000148363
    -0.000008283
    -0.000011643
    -0.001762689
    -0.000782633
    -0.000000003
    -0.002117790
    -0.000089435
    -0.000000057
     0.000328340
    -0.002424956
    -0.000887423
    -0.000011297
    -0.000000878
    -0.000948103
     0.000206008
    -0.002308634
    -0.000162904
    -0.001438576
    -0.000855161
     0.000028447
    -0.002408134
    -0.000030436
     0.000000422
    -0.000001069
    -0.002279153
    -0.000860817
     0.000198444
    -0.001635897
    -0.000806075
    -0.000000071
     0.000291363
    -0.000001492
    -0.001553416
    -0.001543510
    -0.001282727
    -0.001097806
    -0.000859732
    -0.000988947
    -0.000000081
    -0.000859110
    -0.000000043
    -0.001077300
    -0.000000121
     0.000005722
    -0.000251927
     0.000278308
    -0.002172291
    -0.002950474
    -0.001410938
    -0.000625388
    -0.000305210
    -0.001171096
     0.000490673
    -0.000629375
     0.000394611
    -0.001341130
    -0.000110041
    -0.001349705
    -0.001436727
    -0.000000002
    -0.000860124
    -0.000340482
    -0.001334842
    -0.000000068
    -0.000000001
    -0.000000001
    -0.000000002
    -0.001154324
    -0.000000658
    -0.001674197
     0.000771153
     0.000007077
    -0.000000000
    -0.001981380
    -0.001272864
    -0.001844738
    -0.001485729
    -0.000000071
    -0.000838026
    -0.000000016
    -0.001388387
     0.000403748
    -0.000689287
     0.000510128
    -0.000961100
    -0.000000013
     0.000266031
    -0.002430093
    -0.000818349
    -0.001436433
    -0.001103102
    -0.000011671
     0.000391290
    -0.000629580
     0.000337094
    -0.000486510
    -0.000081197
    -0.001080546
    -0.000000143
    -0.001068831
     0.000617777
    -0.001356225
     0.000143054
    -0.001833337
    -0.000000148
     0.000161200
    -0.000001771
    -0.002500225
    -0.000197652
     0.000016658
    -0.002017716
    -0.000615636
    -0.000360825
    -0.000847464
     0.000192063
    -0.001377155
    -0.000337782
     0.000092315
    -0.000066291
     0.000005065
    -0.001412461
    -0.000367559
     0.000217640
    -0.000497934
    -0.001134955
    -0.000384393
    -0.000000603
    -0.000058749
    -0.000296261
    -0.001813961
     0.000815628
    -0.001005002
    -0.001025961
    -0.001486495
     0.000189924
    -0.002978017
    -0.000000684
    -0.000000002
    -0.000968273
    -0.000141846
    -0.000080549
    -0.000000006
    -0.000266288
     0.000324131
    -0.000406808
    -0.000000027
    -0.000022115
    -0.000000028
     0.000213637
    -0.000746045
     0.000001386
    -0.001831523
    -0.002243840
    -0.001805977
    -0.000830642
    -0.000000001
    -0.000000017
    -0.000235004
    -0.000084545
     0.000029814
    -0.000197889
    -0.000722347
    -0.000000197
    -0.000768541
    -0.000000089
    -0.001340584
     0.000430722
    -0.000541313
     0.000313805
    -0.001389016
     0.000016049
    -0.000031517
    -0.000534209
    -0.000001443
    -0.000792358
    -0.000173006
    -0.000730110
    -0.000225291
    -0.000466363
     0.000013468
    -0.000000023
    -0.000061951
    -0.000336397
    -0.000136373
     0.000465950
    -0.000000297
    -0.000071199
    -0.001006970
     0.000029159
    -0.000024910
    -0.000012480
    -0.000416319
    -0.000000945
    -0.000003561
    -0.000000471
    -0.000408342
    -0.000115666
     0.000260423
    -0.000565629
     0.000664155
     0.000715956
     0.000499527
    -0.000000066
     0.001637901
     0.001203166
    -0.000004981
     0.001766535
     0.001036662
     0.000920623
     0.001187571
     0.001077301
     0.000186826
     0.001050127
     0.001415138
     0.001306847
     0.000620101
    -0.000007743
    -0.000000317
     0.001403019
     0.001418047
    -0.000000026
     0.001360411
     0.001160815
     0.001533186
     0.000099346
     0.001724838
     0.001235428
     0.001480074
     0.001460832
     0.001334329
     0.001167749
     0.001243235
     0.001744063
     0.001345603
     0.001054143
     0.001621250
     0.001447909
    -0.000000007
     0.000020074
     0.001614363
     0.001316330
    -0.000000144
     0.000205232
    -0.000003528
     0.001134935
     0.001379698
    -0.000001024
     0.001696848
     0.000612999
     0.001672231
    -0.000000345
     0.001711226
    -0.000007894
     0.001522694
     0.001180095
    -0.000000002
     0.000233409
     0.001481428
     0.001115873
     0.001573765
    -0.000000417
     0.001360521
    -0.000008433
     0.000078065
    -0.000058244
    -0.000788118
    -0.000000002
    -0.000064895
    -0.000077943
     0.000089797
     0.000245622
     0.000545299
     0.000246459
    -0.000315045
    -0.000496673
    -0.000164067
    -0.000002025
    -0.000000337
    -0.000000798
    -0.000000002
    -0.000000006
    -0.000718816
    -0.000386845
    -0.000285646
     0.000063254
    -0.000360194
    -0.000355023
    -0.000114244
     0.000600522
    -0.000000032
    -0.000040627
    -0.000767756
    -0.000004933
     0.000590781
    -0.000000306
    -0.000000006
     0.000772705
     0.001509195
     0.001642650
     0.001181446
     0.001162905
     0.001406843
     0.001435973
     0.001423207
     0.001477896
    -0.000000416
     0.001251785
    -0.000000031
     0.001155070
     0.000054972
     0.000004047
     0.001129185
     0.001162844
     0.001319409
     0.001358777
     0.001617010
     0.001784686
     0.001900757
     0.002109829
     0.001367255
     0.001414057
     0.001517797
     0.001585190
     0.000324353
     0.001857648
     0.000232571
     0.002064472
    -0.000000021
    -0.000000002
    -0.000002732
     0.001534627
     0.000007034
     0.001627944
    -0.000001368
    -0.000000399
    -0.000000012
     0.001750120
    -0.000000001
     0.001971684
     0.000553360
     0.000348951
     0.001330205
     0.001413715
     0.001796317
     0.001934569
     0.001885188
     0.002033558
     0.001522294
     0.001635993
    -0.000007490
     0.001473785
    -0.000004111
     0.001279045
     0.001856320
     0.001890349
     0.002044903
     0.001275191
     0.001028283
    -0.000000035
    -0.000570198
    -0.000133397
    -0.000564429
    -0.000000046
    -0.000000001
    -0.000150458
    -0.000000119
    -0.000000212
    -0.000247568
    -0.000024916
    -0.000028202
    -0.000558635
    -0.000000186
    -0.000000048
    -0.000082324
    -0.000016770
    -0.000213256
    -0.000437537
    -0.000000014
    -0.000571777
    -0.000000581
    -0.000319018
     0.000563715
    -0.000000028
    -0.000000824
    -0.000032171
     0.001660759
     0.001319943
     0.001407684
     0.001552431
     0.000440991
    -0.001758013
    -0.000045471
    -0.000001073
     0.000919468
    -0.000000018
     0.000143400
    -0.000000005
     0.000002169
    -0.000011975
     0.001134943
     0.001170098
     0.001217781
     0.001243662
     0.001654047
     0.001758404
     0.001772582
     0.001904887
     0.001564312
     0.001448977
     0.001655822
     0.001691703
     0.001698713
    -0.000121632
    -0.000646366
    -0.000042415
    -0.000000474
    -0.000001517
     0.001615654
    -0.000000089
    -0.000403258
    -0.000000083
    -0.000020912
    -0.000028097
     0.001846124
     0.001482235
     0.000661014
     0.000956394
     0.001419588
     0.001498527
     0.001617855
     0.001677517
     0.001815342
     0.001896518
     0.001473443
     0.001565823
     0.000960060
    -0.000000279
    -0.000028395
     0.001412645
     0.001628719
     0.000963782
    -0.000000511
     0.000316855
    -0.000726576
    -0.000000001
     0.000006368
    -0.000202489
    -0.000549099
    -0.001244758
    -0.001269191
    -0.000000291
    -0.000009964
    -0.000000660
    -0.000121654
    -0.000003070
    -0.002365349
    -0.000421040
    -0.002054833
    -0.000001726
    -0.000389506
    -0.002345624
    -0.002390408
    -0.001265712
     0.000122673
     0.000145646
     0.000160392
    -0.000129244
    -0.000596294
     0.000252442
     0.000800702
    -0.000523923
    -0.000001276
    -0.001577617
     0.000039509
    -0.000001892
    -0.000000003
    -0.000000007
     0.000058428
    -0.000793554
    -0.001649302
     0.000009904
    -0.000552508
    -0.000043277
    -0.000000075
    -0.000689338
    -0.000002289
    -0.002071320
     0.000498051
     0.000153015
    -0.001371575
    -0.000240193
    -0.002208724
     0.000688729
    -0.000830997
     0.000434408
    -0.001648181
    -0.001631861
    -0.001314082
    -0.000001813
     0.000383899
     0.000178447
    -0.001172990
     0.000012221
    -0.001095155
    -0.000080606
     0.000440775
    -0.000000002
    -0.000019692
    -0.002553309
    -0.001166148
    -0.001291960
    -0.001344636
    -0.001581151
    -0.000656810
    -0.000227159
    -0.000602714
    -0.000323283
     0.000010629
     0.000524555
    -0.000000000
    -0.000000003
    -0.000000001
     0.000585061
     0.000001119
    -0.000000014
    -0.001361058
    -0.001143102
    -0.001418451
    -0.001118861
    -0.001315590
    -0.002271011
    -0.001051111
     0.000410951
    -0.000567909
    -0.000094304
    -0.000233276
     0.000281387
    -0.000000032
     0.000012429
     0.000037407
    -0.000000266
    -0.003867242
    -0.002131822
     0.000090618
    -0.000092434
    -0.001044559
    -0.000000053
     0.000031907
    -0.000654174
     0.000717105
     0.000743190
    -0.001145461
    -0.000000775
    -0.001175381
    -0.002093877
    -0.001014816
    -0.001361060
    -0.001937355
    -0.000631408
     0.000484697
     0.000514780
     0.000059488
    -0.001021744
    -0.001161392
    -0.001842880
     0.000259687
     0.000002722
     0.000771515
    -0.002270178
    -0.001308197
    -0.001992366
    -0.000723443
    -0.000793780
    -0.000011071
     0.000575516
    -0.000000002
    -0.001338301
    -0.001319035
    -0.000004221
     0.000595435
    -0.001714264
    -0.000471141
     0.000643253
    -0.000000024
    -0.000498756
    -0.001906065
    -0.002078496
    -0.001365584
    -0.001466476
    -0.000000600
    -0.001898107
     0.000189382
    -0.000481874
    -0.001154625
    -0.002320974
    -0.000612065
    -0.000000005
    -0.000862763
    -0.002238332
    -0.000251101
    -0.000743743
    -0.000000102
     0.000585816
    -0.000751430
     0.000143039
    -0.000454761
    -0.001389244
     0.000031324
    -0.000649196
    -0.000965062
    -0.000000002
    -0.000639143
    -0.001521462
     0.000531566
    -0.000428013
    -0.000453794
     0.000370989
    -0.001874450
    -0.000011495
    -0.003167470
    -0.000078319
    -0.000000000
     0.000085521
     0.000039837
    -0.002354396
    -0.001534632
    -0.000545478
    -0.000000486
    -0.001744380
    -0.002393612
    -0.000038571
    -0.001396043
    -0.000336166
    -0.000930142
    -0.000979447
    -0.000864456
    -0.000000001
    -0.000451851
    -0.000708543
    -0.001744733
    -0.000317605
    -0.002175073
    -0.000000001
    -0.000382834
     0.000014225
     0.000219565
     0.000323157
    -0.001744588
     0.000609293
     0.000100927
    -0.000000139
    -0.000000033
    -0.000080441
     0.000610608
    -0.000988485
    -0.000741981
    -0.000000000
     0.000585886
    -0.000595301
    -0.000000020
    -0.000890503
    -0.000000025
    -0.000000013
    -0.000000829
    -0.000484556
    -0.000033297
    -0.000000646
    -0.000401344
    -0.001788044
    -0.000000517
    -0.000179933
    -0.000003486
    -0.000000004
    -0.000000033
    -0.000155395
    -0.000435332
    -0.000240989
    -0.000000332
    -0.000043334
    -0.000641489
    -0.000599591
    -0.000000373
    -0.000000008
     0.000564990
     0.000663631
     0.000195853
     0.001305331
    -0.000000502
     0.001293048
    -0.000010810
     0.001487949
    -0.000000030
     0.000777790
    -0.000016221
     0.001539719
    -0.000000018
    -0.000019209
     0.001435207
     0.001218975
     0.001312786
     0.001267172
     0.001275278
     0.001041791
     0.001331288
     0.001098232
     0.001158724
    -0.000000002
     0.001174262
     0.000410956
     0.001252955
     0.001778001
     0.001448249
     0.001678901
     0.001672359
    -0.000000355
     0.001442687
     0.001568575
     0.000006136
     0.001743167
     0.001173433
    -0.000016526
     0.001534812
    -0.000003734
     0.001660187
    -0.000001063
     0.000436177
     0.001293272
    -0.000014221
     0.001426457
     0.001752277
     0.001174413
     0.001806373
     0.001312178
    -0.000000372
    -0.000001792
     0.001260989
     0.001839359
     0.001148115
     0.001768394
     0.001142675
     0.001414803
     0.001576741
    -0.000000042
     0.001673114
     0.000068048
     0.001636895
     0.001646659
     0.000800432
     0.000614341
     0.000608974
     0.001738447
    -0.000002944
     0.001402317
     0.001436186
    -0.000021252
    -0.000003405
     0.001525876
     0.001288201
     0.000547881
    -0.000007926
     0.001232132
     0.001427383
     0.001140452
     0.001341534
     0.001517742
     0.001728788
     0.001430838
     0.001782713
     0.001476045
     0.000030535
     0.001343012
     0.000926141
    -0.000000159
     0.001860714
     0.000000146
     0.001698481
    -0.000002969
     0.001954176
     0.001891466
     0.001179069
     0.001502181
     0.001780326
     0.001598666
    -0.000000014
     0.001579481
     0.001563233
    -0.000007157
     0.001514340
     0.001630393
     0.001284363
     0.001783278
     0.001697462
     0.000005302
     0.001466797
    -0.000001461
     0.001573908
     0.001314101
     0.001853457
     0.001486183
    -0.000000040
     0.000122902
    -0.000009442
     0.001842553
    -0.000002623
     0.001890542
     0.001871572
     0.000154461
     0.001742519
    -0.000000012
     0.001757874
     0.001478491
    -0.000439540
    -0.000743271
    -0.000730940
    -0.000001626
     0.000718621
    -0.001149200
    -0.001653815
    -0.000110252
    -0.001960089
    -0.001016562
    -0.000000036
     0.000063353
    -0.001021945
    -0.000002077
    -0.001080114
     0.000333092
    -0.000009919
    -0.000000053
     0.000261460
    -0.000000001
     0.000346933
    -0.000063518
    -0.000354755
    -0.000010489
    -0.000662617
    -0.000644967
    -0.000000427
    -0.001869747
     0.000139787
    -0.000000792
    -0.000374906
    -0.001713736
    -0.000860578
    -0.000296236
    -0.002625396
    -0.001543359
    -0.000001528
    -0.000108182
    -0.001990897
    -0.000973221
    -0.000417488
     0.000640973
    -0.001518524
     0.000431459
    -0.000770283
    -0.001323250
    -0.000000043
     0.000020045
    -0.000000551
    -0.001047665
    -0.000000134
    -0.000195498
    -0.000002718
    -0.001118922
    -0.001159241
    -0.001140652
    -0.001020758
    -0.001779099
    -0.000037070
    -0.000027709
    -0.000783500
    -0.000586200
    -0.000000007
    -0.000250541
    -0.001344970
     0.000070819
    -0.002218540
    -0.002129899
    -0.000000079
    -0.000465432
     0.000100076
    -0.000214648
    -0.000000232
    -0.000001444
    -0.000224680
    -0.003057419
    -0.000887735
    -0.001843348
     0.000240906
    -0.000000344
     0.000533813
    -0.001856380
    -0.001319702
    -0.002122951
    -0.000000482
    -0.000325378
    -0.002369042
     0.000001224
    -0.001427992
    -0.000019529
    -0.002096472
    -0.000000080
    -0.001335847
    -0.000990799
    -0.000009915
    -0.000278260
    -0.000002717
     0.000752904
    -0.000002150
    -0.000077813
     0.000433860
    -0.003302554
    -0.002582890
     0.000002471
     0.000043643
    -0.000000187
    -0.000001472
    -0.000000001
    -0.001470103
    -0.000006516
    -0.001567276
    -0.000001925
    -0.001708406
    -0.001062222
    -0.000815279
    -0.002025351
    -0.001759008
    -0.000208736
    -0.000091361
    -0.000000324
     0.000424893
    -0.000034617
    -0.000708132
    -0.000000008
    -0.000606858
     0.000628451
    -0.000002635
    -0.000048167
     0.000063895
    -0.000000034
     0.000317583
    -0.000005308
    -0.001545355
    -0.000184314
     0.000295907
    -0.000000766
    -0.001004414
     0.000115426
     0.000876906
    -0.000901809
    -0.000008749
    -0.001487437
    -0.000013928
    -0.000000008
    -0.001322499
    -0.000586520
    -0.000194197
    -0.002120183
    -0.000000104
    -0.002669499
    -0.000023853
    -0.000886975
    -0.001848016
    -0.000195248
     0.000265818
    -0.000000005
    -0.002370265
     0.000002352
    -0.001027010
     0.000528738
    -0.001788350
    -0.001138608
    -0.000000058
    -0.000000244
    -0.000570053
     0.000875869
    -0.002634017
    -0.000000010
     0.000560418
    -0.001479446
    -0.000050592
    -0.000044004
    -0.000190725
     0.000715388
    -0.000000001
    -0.000079866
    -0.000302223
    -0.000505874
     0.000157173
    -0.000013634
     0.000338968
    -0.000042076
     0.000160236
    -0.000407330
    -0.000007361
     0.000787371
    -0.000238325
    -0.000261876
    -0.000166939
    -0.000000002
     0.000687842
     0.000735455
    -0.000260514
     0.000172155
    -0.000370742
     0.000728019
    -0.000000247
    -0.000216190
     0.000640279
    -0.000372369
    -0.000001251
    -0.000000013
     0.000219999
     0.000677742
    -0.000000002
    -0.000012354
    -0.000000031
    -0.000461689
    -0.000239682
     0.000280857
     0.000624904
     0.000417872
     0.000537933
     0.000053601
     0.001464743
     0.001487800
     0.001291178
     0.001669884
    -0.000023648
    -0.000002544
     0.001406703
    -0.000004016
     0.001063884
    -0.000000056
     0.001342744
    -0.000009296
    -0.000000023
     0.001357812
    -0.000013606
    -0.000000569
     0.000869638
     0.000971784
     0.000817072
     0.000920255
     0.001251422
     0.001691408
     0.001178803
     0.001662448
     0.001474896
     0.001607034
     0.001264139
     0.001413750
     0.001197531
    -0.000000010
    -0.000000545
     0.001683938
    -0.000018624
     0.000023025
     0.001436794
     0.000149065
     0.001517409
    -0.000000001
     0.001613213
     0.001543784
     0.000055155
     0.001433894
    -0.000000023
     0.000853157
     0.001159962
     0.001412174
     0.001029784
     0.001292663
     0.001384740
     0.000921236
     0.001017347
     0.001333039
     0.001426163
     0.001549379
     0.001251820
     0.001095976
    -0.000005918
     0.001041579
    -0.000010289
     0.000198101
     0.001386255
    -0.000000003
     0.000543489
     0.000687103
     0.000601293
     0.000574413
     0.001706729
     0.001936210
     0.001280497
    -0.000000000
    -0.000001203
     0.001452570
    -0.000009425
     0.001421627
     0.000164380
     0.001393087
    -0.000001888
    -0.000000039
     0.001345325
     0.000504795
     0.001296819
     0.001119470
     0.001174817
     0.001000053
     0.001901233
     0.001408829
     0.002075269
     0.001247380
     0.001798854
     0.001833554
     0.001559965
     0.001321165
     0.001000726
    -0.000000003
     0.000351422
     0.001584968
     0.000724519
    -0.000011814
     0.001233493
     0.001808798
     0.001443627
    -0.000007577
    -0.000004860
     0.001657664
     0.000754212
     0.001380412
    -0.000011347
     0.001860957
     0.001431242
     0.001575585
     0.001139361
     0.000360794
     0.001422660
    -0.000000003
     0.001751702
     0.001200902
     0.000643240
     0.001556465
     0.001637629
     0.001275970
    -0.000000301
     0.000003731
     0.001609169
     0.000247418
    -0.000000003
     0.001608731
     0.000077130
    -0.000542621
     0.000217839
     0.000263231
    -0.002188935
     0.000039783
     0.000521836
    -0.000002153
    -0.000349148
     0.000293468
    -0.000000172
    -0.001797607
    -0.000000072
    -0.000957358
    -0.000354655
    -0.000597004
    -0.000926322
    -0.001615242
    -0.000181681
    -0.002143681
     0.000364032
     0.000058515
    -0.000607092
     0.000031636
    -0.000000002
    -0.000009402
     0.000223468
    -0.000230657
     0.000477417
    -0.001680167
     0.000153127
     0.000009268
    -0.000576776
    -0.001259072
    -0.000000021
    -0.000000000
    -0.002016823
     0.000313696
    -0.001952206
    -0.000000003
     0.000710932
     0.000784748
    -0.002119100
     0.000392073
    -0.000633038
    -0.000507251
     0.000377858
     0.000000047
    -0.002259075
    -0.000000522
    -0.000558181
    -0.000000011
     0.000616050
     0.000304036
    -0.001869151
    -0.000314786
     0.000394649
    -0.001389102
     0.000892987
     0.000023864
    -0.001685413
     0.000001817
     0.000018227
    -0.001539727
    -0.000482364
    -0.000000010
     0.000154135
    -0.000004671
     0.000127846
     0.000062643
    -0.000001255
    -0.001539681
    -0.001084199
    -0.001561031
    -0.001047848
     0.000514675
    -0.000001084
     0.000574271
    -0.000143921
     0.000001203
    -0.000022624
    -0.000000656
    -0.000911427
    -0.000000620
    -0.000591965
    -0.001208716
    -0.000124654
    -0.000000009
    -0.002005701
    -0.000841142
    -0.002184775
    -0.000619886
     0.000481445
     0.000574080
     0.000476041
    -0.001302103
     0.000852119
    -0.000186723
    -0.002134928
    -0.001012534
    -0.001156713
    -0.000000275
    -0.000591174
    -0.001755891
    -0.001336380
    -0.000350191
    -0.000934875
     0.000746871
    -0.000371552
    -0.001507656
    -0.000541288
    -0.001108161
    -0.000711416
    -0.000621389
    -0.002184831
    -0.000434423
    -0.000179498
     0.000804590
     0.000131836
    -0.000000002
    -0.000810051
    -0.000023005
     0.000034489
     0.000000415
    -0.000255985
    -0.000000014
     0.000312319
     0.000450858
    -0.000004247
    -0.000001507
    -0.001649066
    -0.001623282
    -0.000090189
    -0.000003601
    -0.002149109
    -0.000000514
    -0.002910853
    -0.000570166
    -0.000906944
    -0.001441408
    -0.001530920
     0.000158026
    -0.000000045
     0.000623115
    -0.000595983
    -0.000347109
    -0.000329219
    -0.001040557
    -0.001423308
    -0.001304884
    -0.000285565
    -0.001622127
    -0.001003075
    -0.000978801
    -0.001463667
    -0.000345009
     0.000753962
    -0.001792578
     0.000549811
    -0.000928042
    -0.000020443
    -0.000210649
    -0.001021851
     0.000443454
    -0.000235903
    -0.000002049
     0.000006013
     0.000310468
    -0.001113647
     0.000333648
    -0.000000037
    -0.000447876
    -0.001010613
    -0.001995850
    -0.000848121
    -0.000195214
     0.000155483
    -0.001066773
    -0.001199893
    -0.001377708
     0.000090403
    -0.000000001
    -0.002121589
     0.000010505
     0.000605645
    -0.000829519
     0.000618113
    -0.000405564
    -0.000001145
    -0.000380045
    -0.000843811
    -0.000998514
    -0.001755162
    -0.001400233
    -0.001906586
    -0.001142506
    -0.001572380
    -0.001215465
    -0.000025402
    -0.001806301
    -0.001578521
    -0.000000008
    -0.002195901
     0.000339624
    -0.002434452
     0.000405306
    -0.000000011
     0.000373560
    -0.000000007
     0.000035540
    -0.001095022
     0.000636900
    -0.000169699
    -0.000000020
     0.000027842
    -0.000151706
     0.000320959
    -0.002135720
     0.000203478
    -0.000550420
     0.000695213
    -0.000000010
    -0.000000157
     0.000583095
     0.001472708
    -0.000022450
     0.001372154
    -0.000026112
    -0.000000514
    -0.000000877
     0.001119468
     0.001338497
     0.001092896
     0.001310612
     0.001149494
    -0.000003697
     0.001089275
    -0.000012850
    -0.000000765
    -0.000003414
     0.001287751
     0.001263850
     0.001637148
     0.001611406
     0.001791705
     0.001657727
     0.001585760
     0.001570719
     0.001256041
    -0.000011758
     0.001221989
    -0.000003252
    -0.000000334
    -0.000000383
     0.001665512
     0.001731981
     0.001526353
     0.001610371
     0.001311489
     0.001655705
     0.001246104
     0.001607538
     0.001779271
    -0.000015993
     0.001596977
    -0.000027671
    -0.000000945
    -0.000002567
     0.001417328
     0.001355128
     0.001103314
     0.001187392
     0.001688437
     0.001541169
     0.001819896
     0.001738335
     0.001182500
     0.001607044
     0.001280714
     0.001007151
     0.001575152
     0.001485441
     0.001747774
     0.001550377
     0.000353670
    -0.000061989
    -0.000000009
     0.001233224
     0.000080573
    -0.000860413
    -0.000200253
    -0.000050117
    -0.000000001
     0.000817378
    -0.000015971
    -0.000218779
     0.000852382
    -0.000129333
     0.000952959
     0.000485126
     0.001336741
    -0.000005294
    -0.000000103
     0.000558230
    -0.000902807
     0.001199669
     0.000883240
     0.000721805
    -0.001352900
    -0.000002131
     0.001274726
     0.000527069
    -0.000016999
    -0.000127648
     0.001202772
    -0.000092753
     0.000844890
    -0.000000048
    -0.000000001
     0.001278533
    -0.000094895
    -0.000109723
    -0.000149464
    -0.000000749
     0.000035036
     0.001233332
     0.000559319
     0.000737734
    -0.000000000
     0.000000169
     0.001153044
     0.001487549
     0.001681135
     0.001537247
    -0.000009057
    -0.000000001
     0.000565650
     0.000304535
    -0.000000548
     0.001520663
     0.000870148
     0.001389644
     0.001079689
     0.001413299
     0.001269319
     0.001081103
     0.001279110
     0.001088270
     0.001727796
     0.001324544
     0.001844091
     0.001337206
     0.001847960
     0.001593909
     0.001943537
     0.001659110
    -0.000000009
    -0.000006520
     0.001797347
    -0.000000756
     0.000192224
     0.001940066
     0.000210185
     0.001742141
     0.001179682
    -0.000000007
     0.001845942
    -0.000003202
    -0.000004261
     0.001502389
    -0.000005931
    -0.000009778
     0.001542964
     0.001758720
     0.001294648
     0.001790382
     0.001316203
    -0.000007435
    -0.000001514
     0.001419189
     0.001782196
     0.001214167
     0.001694192
     0.002030857
     0.001485500
     0.001518521
     0.000320376
    -0.000000003
     0.001501504
     0.001617929
     0.001889084
