#
# Number of atoms
#
 92
#
# The current total energy in Eh
#
  -4951.258254129475
#
# The current gradient in Eh/bohr
#
      -0.000014234377
      -0.000005060164
       0.000000390963
      -0.000006004150
      -0.000003517842
      -0.000001077924
      -0.000005620514
       0.000000301267
       0.000000634598
       0.000002438163
       0.000000798744
      -0.000002883079
      -0.000003897233
       0.000002211763
      -0.000006654852
       0.000008667140
      -0.000006744525
       0.000006098523
       0.000002835242
       0.000003136771
       0.000002178931
      -0.000000510316
       0.000004635898
      -0.000000413900
      -0.000005191885
       0.000000554987
      -0.000001918013
       0.000004557386
      -0.000002826686
      -0.000003920702
       0.000003549289
      -0.000001260633
      -0.000000672291
       0.000002995600
      -0.000002175559
      -0.000005038352
      -0.000001050826
      -0.000001358450
      -0.000002510031
       0.000002730875
       0.000001327012
       0.000002898442
       0.000004303749
      -0.000006565969
      -0.000001596821
       0.000002992212
      -0.000000584584
       0.000005874574
      -0.000000686635
       0.000005999574
      -0.000001769082
       0.000004117946
      -0.000001266688
       0.000002936775
      -0.000003477746
       0.000002472116
      -0.000003048371
      -0.000001179413
       0.000001175740
       0.000001773522
      -0.000000651779
       0.000002413122
      -0.000003419156
       0.000001848580
      -0.000002199094
      -0.000004685232
      -0.000002055307
       0.000003949092
      -0.000000725830
       0.000001481314
      -0.000001058000
       0.000001300566
      -0.000000772714
       0.000002409037
      -0.000005451262
       0.000000717548
      -0.000001190112
      -0.000000545729
       0.000000244002
       0.000001188658
       0.000006257929
      -0.000002127216
      -0.000002585575
       0.000002877534
       0.000001933503
      -0.000001972034
       0.000003465946
      -0.000000599612
      -0.000000233174
       0.000001128475
      -0.000001557955
       0.000001805924
       0.000004320669
      -0.000001655566
       0.000001395411
      -0.000002248160
       0.000001468793
       0.000000490102
      -0.000004316273
       0.000000456636
      -0.000001212451
      -0.000000558910
      -0.000001649400
       0.000004481141
       0.000000132029
      -0.000003757016
       0.000002704806
      -0.000004402902
      -0.000000384076
      -0.000001142524
      -0.000000420257
      -0.000000052089
      -0.000000131583
      -0.000000413960
       0.000000365934
       0.000000122265
       0.000002095912
      -0.000001318458
       0.000001830116
      -0.000002646364
      -0.000000003275
      -0.000004654282
      -0.000001967219
      -0.000004375482
       0.000001261177
      -0.000004165409
       0.000001515037
      -0.000002344035
      -0.000000868417
       0.000000048988
      -0.000000604515
      -0.000003151413
       0.000002960508
      -0.000001451625
       0.000001016955
       0.000000270563
      -0.000000803393
       0.000000719516
      -0.000000945791
      -0.000001456381
       0.000003695679
      -0.000000753776
       0.000003095610
      -0.000001532714
      -0.000000042905
       0.000000566568
      -0.000001129717
      -0.000000225528
      -0.000000430478
      -0.000000917192
       0.000000224949
      -0.000000544633
       0.000000288542
      -0.000000561293
       0.000000516424
       0.000000417513
      -0.000000772727
       0.000000827421
      -0.000001305753
      -0.000001105739
       0.000001612128
       0.000000235297
       0.000000049054
       0.000000428159
       0.000001541494
       0.000000144291
       0.000000228638
      -0.000001288221
      -0.000000656614
      -0.000000153611
      -0.000000483476
      -0.000000899103
       0.000000838692
      -0.000000182505
      -0.000000050921
       0.000000398778
       0.000000458216
       0.000000062728
      -0.000000802592
      -0.000000554920
      -0.000007396669
      -0.000001959888
      -0.000003941183
       0.000008275064
      -0.000000842526
       0.000003005141
       0.000004933814
      -0.000002132633
      -0.000001825299
       0.000006122382
       0.000000735641
      -0.000000125996
      -0.000008087282
      -0.000005174772
      -0.000011122529
       0.000003244892
      -0.000003988108
       0.000010880881
      -0.000000246454
       0.000005490052
      -0.000001182026
      -0.000020651185
       0.000005618347
       0.000009619278
       0.000008046889
      -0.000001104429
      -0.000004741570
      -0.000000045543
      -0.000005456329
      -0.000003467292
       0.000001680610
       0.000001930725
       0.000000001367
       0.000009254086
      -0.000002360959
       0.000001931708
       0.000001000530
      -0.000001716328
       0.000002894811
      -0.000000186729
       0.000005644309
      -0.000000654749
      -0.000004414130
      -0.000002767107
       0.000000186816
      -0.000003013177
       0.000006926222
       0.000000358653
       0.000001241603
       0.000000457780
      -0.000001721584
      -0.000000260867
       0.000002691585
       0.000001260628
       0.000003309164
      -0.000003095563
       0.000000867022
      -0.000000936146
      -0.000000145701
       0.000003063785
       0.000002280874
       0.000001346410
       0.000003071923
       0.000001764395
       0.000004993766
       0.000003843356
      -0.000001346961
      -0.000001982164
       0.000002896882
       0.000000113154
      -0.000000117681
       0.000000023084
       0.000004535634
       0.000003071845
       0.000005033361
       0.000002137983
       0.000002048388
       0.000004239327
      -0.000001679285
      -0.000004451180
      -0.000000642582
       0.000000179470
      -0.000000157061
      -0.000001010769
       0.000002693733
      -0.000001541688
      -0.000004423219
      -0.000001777669
       0.000000653343
       0.000004433334
       0.000000683623
      -0.000003827315
      -0.000001141528
       0.000004391607
       0.000002366993
       0.000004534759
#
# The atomic numbers and current coordinates in Bohr
#
  40    -1.7671067    4.0033736    2.3250118 
  40     0.8382676   -3.4944009   -2.5688985 
  40     3.5843796   -0.3300039    2.3236551 
  40    -4.6713279    0.8692439   -2.4030430 
  40     1.3540759    2.7854350   -3.5143153 
  40    -2.4210435   -2.2917692    3.4210931 
   8    -3.8398013    0.6817498    1.3928401 
   8     2.9055030   -0.0989738   -1.4814086 
   8     0.6275409   -2.9918039    1.2733143 
   8    -1.8885718    3.7490755   -1.4932054 
   8    -1.1969485   -0.3768559   -3.5402458 
   8     0.2222117    1.0409065    3.6130841 
   8    -3.9656153    3.7471494    6.4062858 
   8    -5.3533567    5.8922169    1.7016219 
   8     1.9075682    5.1654889    5.9279109 
   8     1.6128682    5.9017209    0.8299185 
   8    -0.8916576   -6.9586686   -1.1102079 
   8    -1.9916030   -4.8633606   -5.3390350 
   8     4.3736237   -5.4640932   -1.7903268 
   8     2.9506800   -3.0909406   -6.0770980 
   8     3.7227777   -2.7931254    5.6649963 
   8     4.8274661    2.1876746    5.5146775 
   8     6.2383762   -3.2933309    1.2906732 
   8     6.4452137    2.2606423    0.9172547 
   8    -7.8927687   -1.1945401   -0.7114490 
   8    -7.2241151    3.9672710   -1.5414972 
   8    -5.4324089   -2.4895839   -4.7024976 
   8    -4.8580018    2.8120354   -6.0005706 
   8    -0.9015248    4.0396898   -6.7545479 
   8     1.6064661    7.0445504   -3.1746264 
   8     3.1271514    1.0502807   -6.7767036 
   8     5.3543196    3.9105172   -2.8210220 
   8    -6.2970506   -3.3851893    2.5296266 
   8    -4.2458646   -0.4499702    6.6106878 
   8    -2.5443545   -6.4194438    2.7407546 
   8    -0.2863722   -3.5856413    6.6553873 
   6    -4.6745272    1.6898483    7.4329768 
   6    -7.0730795    5.6674822    0.0852900 
   6     3.9556953    4.0904034    6.5487726 
   6     1.6535297    7.5769098   -0.9047046 
   6    -1.6887182   -7.7356800    0.9824591 
   6    -4.1498284   -4.0937679   -5.8892417 
   6     6.1533545   -5.0411877   -0.2965264 
   6     3.5903546   -1.1976502   -7.3342918 
   6     2.0479077   -3.7229421    7.0333741 
   6     6.9120610    3.3078472   -1.1605216 
   6    -8.0797386   -2.5375428    1.2135579 
   6    -3.1921457    3.8950966   -7.2895006 
   1    -5.0401179   -4.9331038   -7.5635577 
   1     7.7834386   -6.3158567   -0.3836107 
   1     5.0246804    4.9268845    8.1170953 
   1    -8.5750308    7.0904033    0.1247252 
   1     4.6481467   -1.5357755   -9.0820655 
   1    -3.8092357    4.7900861   -9.0525831 
   1     1.7332302    9.5652509   -0.3301861 
   1     8.8979822    3.7779570   -1.5268483 
   1    -1.6650910   -9.7877562    1.2777443 
   1    -9.9950142   -3.0683824    1.8035181 
   1    -5.7483759    1.8532372    9.1928527 
   1     2.6628317   -4.7528177    8.7218581 
  13    -7.9595108   10.8862354    5.2975959 
  13    -7.8223759   16.6825865    5.3029399 
  13    -6.1890019   12.9074819    9.5745159 
  13    -4.7527719    7.0036829    8.5941769 
  13    -0.3365736   13.9964591    8.3554604 
  13    -1.9715336   15.7772739    2.8888226 
  13     0.6025281    8.3843636    6.6392289 
  13     3.4159287   12.9238697    4.0454424 
   1     6.2235900   13.1481585    3.0714525 
   1     2.8267744   13.9985650    6.8518616 
   1     2.4030741   10.0042463    4.1467000 
   1     1.3077929   14.4168063    2.3593972 
   1    -3.1829225   13.2725615    1.7989471 
   1    -1.2534179   18.3280133    1.5290725 
   1    -5.0476177   17.0469639    4.0336105 
   1    -9.6098457   19.0445647    4.9775655 
   1    -1.2091866   16.0045479    6.0103202 
   1    -7.3011671   15.8764392    8.2390884 
   1    -3.3158261   14.2614860    9.5737988 
   1    -7.3579294   13.5618722   12.2487944 
   1    -5.0062599    9.9723655    9.9808094 
   1    -1.6883955    7.3392195    8.8703844 
   1    -6.1084838    5.4726312   10.7782127 
   1     2.5008656    9.2536195    8.8397130 
   1     1.0866316   14.8326856   10.8266218 
   1    -1.0358810   11.3815664    6.8712390 
   1    -9.4757198    9.7020929    3.0378322 
   1    -8.9841504   14.0381338    4.1901828 
   1    -6.5658332    7.9949432    6.2786906 
   1    -9.0809076   11.4359792    8.1674846 
   1    -1.5501345    7.7574350    4.3432106 
   1    -5.3083668   12.2917406    6.1027598 
