#
# Number of atoms
#
 92
#
# The current total energy in Eh
#
  -4952.495902856499
#
# The current gradient in Eh/bohr
#
       0.000030490669
      -0.000080473507
      -0.000085890824
       0.000032844496
      -0.000069452462
       0.000018588705
       0.000033800122
       0.000062411979
       0.000102113242
      -0.000048610447
       0.000005671679
       0.000012479658
      -0.000030555104
       0.000020281156
      -0.000002161817
       0.000081455724
      -0.000080599673
       0.000004355860
      -0.000019032651
       0.000053069071
       0.000011891424
       0.000002378428
       0.000049649025
      -0.000034059045
      -0.000052859778
       0.000000401696
       0.000047821717
       0.000029417281
       0.000023681357
      -0.000024430761
       0.000002874315
       0.000042756356
       0.000014259215
      -0.000037880519
       0.000091022451
       0.000056083233
       0.000003756430
       0.000113522147
      -0.000006921791
       0.000024585544
      -0.000024384461
      -0.000036095313
       0.000099315681
       0.000002438538
       0.000034784393
      -0.000028058421
      -0.000018647583
       0.000014907322
       0.000032192629
      -0.000032779774
       0.000003238201
      -0.000004985974
      -0.000018568752
      -0.000043163669
      -0.000039155384
       0.000019788817
      -0.000014179375
       0.000015852601
       0.000001063217
      -0.000030786193
       0.000025844745
      -0.000031490080
       0.000050581550
      -0.000014558242
      -0.000062937425
      -0.000033387766
      -0.000004675729
      -0.000068404536
      -0.000014512816
      -0.000039461622
       0.000007152401
      -0.000021292373
      -0.000006112168
       0.000020983120
      -0.000022381121
       0.000000781146
       0.000033850904
      -0.000013578539
      -0.000030829112
       0.000055227150
       0.000014051200
      -0.000020130333
      -0.000020201302
       0.000005197056
       0.000047421157
       0.000007941695
      -0.000021624495
       0.000023857571
       0.000022923910
       0.000032693204
       0.000029658164
       0.000025443825
       0.000028947544
      -0.000002692395
       0.000004877666
      -0.000025814032
      -0.000053425742
       0.000046384583
       0.000017239694
      -0.000012232250
      -0.000000898148
       0.000024042853
      -0.000016238334
       0.000014326808
       0.000002951616
      -0.000048738095
      -0.000000009269
      -0.000033507533
       0.000012328542
      -0.000077918157
      -0.000020715000
       0.000011977641
      -0.000031234668
       0.000002524731
      -0.000044267051
       0.000005922003
      -0.000016971835
       0.000005054864
      -0.000026058377
      -0.000025754519
      -0.000006522781
      -0.000009127252
      -0.000007862543
       0.000034353921
      -0.000027734347
      -0.000024563002
       0.000031759126
      -0.000008697073
       0.000025207462
      -0.000029956916
      -0.000053207753
       0.000023789809
      -0.000005527570
       0.000047981839
      -0.000069749939
       0.000043559126
       0.000001323471
       0.000030386348
       0.000001504825
      -0.000028167953
      -0.000008559560
      -0.000006081844
      -0.000026974031
       0.000048085128
      -0.000011222213
       0.000013010424
       0.000002824838
      -0.000003651899
       0.000000569408
       0.000011124790
      -0.000007551565
       0.000008911154
       0.000002550426
      -0.000005141081
       0.000004066795
       0.000006154116
      -0.000002272327
       0.000013261543
      -0.000007290997
       0.000007660757
       0.000001278271
      -0.000004436155
      -0.000007698344
       0.000002269026
       0.000024772763
      -0.000000087938
      -0.000001692277
       0.000000625428
      -0.000004941675
       0.000004431893
      -0.000004887198
       0.000009776927
      -0.000024155761
       0.000011957804
       0.000003073353
      -0.000005158681
      -0.000001611217
       0.000005258358
      -0.000001530772
       0.000005022095
      -0.000047937226
       0.000065036164
       0.000031910725
      -0.000039832311
       0.000001449129
       0.000049539083
       0.000185110340
       0.000079744212
       0.000101818927
      -0.000037035707
      -0.000063044648
      -0.000072248621
       0.000087455090
       0.000076698740
      -0.000066289229
       0.000075355648
      -0.000045191365
      -0.000010492996
      -0.000032433778
       0.000114482722
       0.000099940269
      -0.000033079128
       0.000039158877
       0.000045599877
      -0.000019446458
      -0.000002455852
      -0.000024789298
       0.000050228987
      -0.000038146458
       0.000077380376
       0.000005519613
      -0.000027194512
      -0.000046765152
      -0.000013671664
      -0.000046842262
      -0.000051131400
      -0.000008093152
       0.000009444033
       0.000010042409
      -0.000005224188
       0.000018321103
      -0.000012374098
       0.000009220192
       0.000044297033
      -0.000019493803
       0.000015227323
       0.000001753685
      -0.000032735926
      -0.000058491408
       0.000005618658
       0.000070685568
       0.000003618371
      -0.000021366080
      -0.000027661071
      -0.000051772598
      -0.000062707078
      -0.000033144316
      -0.000026359305
       0.000007185165
      -0.000011705150
      -0.000015624434
       0.000028857614
       0.000037760253
       0.000057129277
      -0.000018721296
      -0.000029802237
      -0.000004250621
      -0.000000646152
       0.000014186988
      -0.000026334745
      -0.000027843994
       0.000005168474
       0.000008716999
      -0.000017329976
       0.000014435605
      -0.000082121630
      -0.000034908407
      -0.000014630193
       0.000045174577
      -0.000011028285
      -0.000011893991
       0.000000725726
      -0.000021171564
      -0.000025546948
      -0.000009024935
      -0.000001944307
       0.000015892881
      -0.000025541093
      -0.000038414889
      -0.000052105706
      -0.000007797288
       0.000001993550
      -0.000038156666
      -0.000037089131
      -0.000012474764
      -0.000028458609
#
# The atomic numbers and current coordinates in Bohr
#
  40    -1.5188167    4.1123650    2.3977302 
  40     0.8679430   -3.7679205   -2.6891900 
  40     3.7447382   -0.5711043    2.2883448 
  40    -4.5906765    0.8762392   -2.4515380 
  40     1.5875781    2.6219534   -3.7251745 
  40    -2.4452917   -2.3817581    3.3974100 
   8    -3.8066679    0.7255941    1.4045729 
   8     3.0931789   -0.3470356   -1.6063450 
   8     0.6629108   -3.1875719    1.2128102 
   8    -1.5618481    3.6433276   -1.5185451 
   8    -1.1037029   -0.5277080   -3.6907791 
   8     0.3596825    0.9176390    3.5731938 
   8    -3.9006534    3.7131418    6.4607833 
   8    -5.1142275    6.0955469    1.6079229 
   8     1.9865675    5.1677594    5.7817506 
   8     1.5860037    6.5027158    0.8548609 
   8    -1.0038412   -7.2238081   -1.1738647 
   8    -2.0902038   -5.0937980   -5.4893206 
   8     4.4377095   -5.8514048   -1.8829884 
   8     3.0291994   -3.4550260   -6.2812799 
   8     3.8363129   -3.0372821    5.7223721 
   8     4.9443482    2.0831947    5.5371290 
   8     6.3701296   -3.6857251    1.2652983 
   8     6.6896506    2.0684805    0.9120029 
   8    -8.0613154   -0.9676930   -0.7294862 
   8    -7.0236583    4.1971919   -1.7246184 
   8    -5.5082375   -2.6371326   -4.6088042 
   8    -4.7346317    2.7841690   -6.1784998 
   8    -0.6875074    3.8944239   -7.0397680 
   8     1.8683245    6.9329220   -3.3792322 
   8     3.3742176    0.7469111   -7.0248718 
   8     5.6246246    3.7710050   -2.8834377 
   8    -6.3673129   -3.4535453    2.3387502 
   8    -4.2802953   -0.5551725    6.6680493 
   8    -2.6380102   -6.6173356    2.7576387 
   8    -0.2726415   -3.7502318    6.7074498 
   6    -4.7011150    1.6422481    7.4608594 
   6    -6.8338944    5.9116496   -0.0650169 
   6     4.0085438    4.0148916    6.5280057 
   6     1.7948869    7.8191412   -1.1782298 
   6    -1.8335299   -7.9724491    0.9610121 
   6    -4.2958069   -4.2717101   -5.9012206 
   6     6.2381128   -5.4540439   -0.3505056 
   6     3.7532063   -1.5605416   -7.5590522 
   6     2.0903493   -3.9222290    7.1001846 
   6     7.1840644    3.1466480   -1.1832938 
   6    -8.2032296   -2.4572440    1.1292497 
   6    -3.0243084    3.7704607   -7.5467413 
   1    -5.3237286   -5.0968130   -7.5782641 
   1     7.8832987   -6.8049747   -0.4290782 
   1     4.9990089    4.8615681    8.2148927 
   1    -8.3312989    7.4220885   -0.0480296 
   1     4.8382653   -1.9641304   -9.3467092 
   1    -3.6518215    4.6148863   -9.3988853 
   1     1.9382802    9.9348534   -0.9505504 
   1     9.2309298    3.6292450   -1.5339184 
   1    -1.8823336  -10.0835009    1.2602246 
   1   -10.1597328   -2.9975048    1.7828553 
   1    -5.8768483    1.8403668    9.2208745 
   1     2.6888511   -4.9689401    8.8566027 
  13    -8.0804739   11.0724473    5.4898241 
  13    -8.2136998   16.9741026    5.6308996 
  13    -6.3286616   13.0916787    9.9052181 
  13    -4.7376901    7.0996429    8.8044367 
  13    -0.3860378   14.3047026    8.5043519 
  13    -2.3317808   16.0775520    2.9301859 
  13     0.6655141    8.4850073    6.7349962 
  13     3.2632930   13.1749885    3.9074486 
   1     6.0574709   13.4328932    2.7025979 
   1     2.8398419   14.3257643    6.8064119 
   1     2.3520256   10.1521740    4.1439165 
   1     0.9655165   14.5852134    2.2515418 
   1    -3.6702120   13.5438161    1.8540838 
   1    -1.5687754   18.6914609    1.5548641 
   1    -5.3959209   17.4502236    4.2805773 
   1   -10.1159242   19.3404416    5.3272880 
   1    -1.3869687   16.3331153    6.1187296 
   1    -7.6286462   16.1518819    8.6375909 
   1    -3.4061346   14.5834946    9.9033696 
   1    -7.5598087   13.6268295   12.6517690 
   1    -4.9657664   10.1072282   10.2688199 
   1    -1.5714925    7.2586571    9.1205501 
   1    -6.2195269    5.4538955   10.9188314 
   1     2.7144340    9.2265389    8.9270386 
   1     1.1897446   15.1803979   10.9575910 
   1    -1.0860795   11.5250072    7.1444444 
   1    -9.5218042    9.8342537    3.1141237 
   1    -9.3389230   14.2510663    4.4328743 
   1    -6.4436582    8.1219531    6.3221163 
   1    -9.2967389   11.4276913    8.4392138 
   1    -1.5948418    7.7414049    4.4989811 
   1    -5.4273255   12.6220426    6.3443357 
