#
# Number of atoms
#
 88
#
# The current total energy in Eh
#
  -4707.359384917666
#
# The current gradient in Eh/bohr
#
      -0.000003825103
       0.000008091558
      -0.000007718959
      -0.000005857466
       0.000003306167
      -0.000004266739
       0.000008499313
       0.000004806151
       0.000005140875
      -0.000000181673
       0.000005685509
      -0.000005294014
       0.000002933643
       0.000001749646
      -0.000015037657
      -0.000003094149
       0.000006411571
       0.000013224020
      -0.000007284413
       0.000002122902
      -0.000003849185
       0.000007301950
      -0.000000116160
       0.000014240160
       0.000000039729
       0.000001307111
      -0.000000315474
      -0.000000499936
       0.000008363618
       0.000006307169
      -0.000002521373
      -0.000006746620
       0.000004524354
      -0.000000997671
       0.000005321966
       0.000000720553
      -0.000004751191
       0.000010359567
      -0.000001039690
      -0.000002939115
       0.000006654831
      -0.000009575754
      -0.000003712647
       0.000010687403
      -0.000005420795
      -0.000000179771
       0.000002880913
      -0.000010542023
       0.000001769776
      -0.000005529141
       0.000008482505
       0.000001158912
      -0.000007740513
       0.000007410130
       0.000002744604
       0.000000632327
       0.000009574766
       0.000005199350
      -0.000008627456
       0.000001510082
      -0.000000219649
       0.000008895967
       0.000009072120
      -0.000002657058
       0.000009282642
      -0.000000681362
       0.000004518061
       0.000003902725
       0.000009066386
       0.000002574800
       0.000006666888
       0.000002721448
      -0.000001665787
      -0.000003025972
      -0.000003045799
      -0.000005687747
      -0.000003099867
      -0.000009477920
      -0.000006012659
      -0.000004420603
      -0.000006195753
       0.000000871706
      -0.000003891510
      -0.000005647728
       0.000004229655
      -0.000006928979
      -0.000005139245
       0.000005248254
       0.000004358642
      -0.000002915688
       0.000002840450
      -0.000000546051
       0.000005547518
       0.000005728239
       0.000003537147
      -0.000000315715
      -0.000003038836
       0.000007500903
       0.000003875545
      -0.000002753797
       0.000007078591
       0.000000512165
      -0.000001824660
       0.000006499552
       0.000003231606
      -0.000003640431
       0.000008831577
       0.000008240701
      -0.000000698460
       0.000009953074
      -0.000011418430
       0.000000084226
      -0.000003372594
      -0.000007732372
      -0.000005097117
       0.000008784580
      -0.000002356074
      -0.000007509665
       0.000003799177
      -0.000002501831
       0.000005958376
       0.000007119301
       0.000003448743
       0.000006586114
      -0.000002996366
       0.000006539355
       0.000000664016
       0.000010078845
       0.000010069497
       0.000000833350
      -0.000001744038
       0.000010318932
       0.000000588872
       0.000015297390
      -0.000002158013
      -0.000003334458
       0.000002220031
       0.000006059109
       0.000003954783
      -0.000000075611
      -0.000003368728
      -0.000003410595
      -0.000009805453
       0.000001822918
       0.000002479221
      -0.000008511461
       0.000002332868
       0.000003745524
       0.000004243205
       0.000012635174
      -0.000003228541
       0.000012374927
      -0.000001320133
      -0.000004863846
       0.000000916426
      -0.000011819799
       0.000002902996
      -0.000007054589
       0.000006160338
       0.000000055718
      -0.000008708056
      -0.000006497574
      -0.000002652061
       0.000001062999
      -0.000009494671
       0.000000877179
       0.000004493669
       0.000003916268
       0.000002386752
       0.000003417754
       0.000009347203
      -0.000001744218
       0.000001574931
      -0.000003972896
      -0.000004636138
       0.000012000255
      -0.000004953308
      -0.000000585998
       0.000014206926
       0.000006917257
       0.000000930943
      -0.000014873065
       0.000005468793
      -0.000002740813
      -0.000012892045
      -0.000001289458
      -0.000004749405
      -0.000006028328
       0.000013006533
       0.000011135359
      -0.000013487295
       0.000006076900
       0.000009892410
       0.000010330924
       0.000000368155
      -0.000001258945
       0.000006819031
      -0.000004779395
      -0.000002166663
      -0.000000931186
      -0.000010620920
       0.000005879240
      -0.000015646668
       0.000003050596
       0.000003112111
      -0.000011840550
       0.000004514334
       0.000000806352
      -0.000014962875
      -0.000005380189
       0.000001997158
      -0.000013396996
      -0.000006696212
       0.000001512284
      -0.000009878688
      -0.000000594625
      -0.000000551944
      -0.000011197648
      -0.000003060330
       0.000003799580
      -0.000006519189
       0.000003619800
       0.000004310600
      -0.000006418825
       0.000006152178
      -0.000004388735
      -0.000000225658
       0.000005708724
       0.000001160529
      -0.000005752758
       0.000000814536
      -0.000000112418
      -0.000005365731
       0.000001325861
      -0.000001725978
       0.000000671961
       0.000003680299
      -0.000007791335
      -0.000001798513
      -0.000004829471
      -0.000005161017
      -0.000002338643
      -0.000011294155
      -0.000002136694
      -0.000004245561
      -0.000007052902
      -0.000003060383
       0.000002169710
      -0.000008707220
       0.000007291266
      -0.000006064602
      -0.000007309720
      -0.000000724371
      -0.000009646280
      -0.000001943616
       0.000001621463
      -0.000006982867
       0.000000887755
      -0.000000227298
      -0.000004075499
      -0.000008037735
      -0.000002322712
       0.000001039529
      -0.000001974990
#
# The atomic numbers and current coordinates in Bohr
#
  40     0.4756752    3.5513742    1.4574667 
  40    -1.0845257   -4.6963861   -2.9603624 
  40     3.2702272   -2.8917902    1.3745644 
  40    -3.8777005    1.6930135   -2.8652739 
  40     2.1954607    0.5663709   -4.4983545 
  40    -2.7348943   -1.6933150    3.1699707 
   8    -2.9184946    1.4059476    0.8706959 
   8     2.5030951   -2.5660410   -2.3653413 
   8    -0.6197289   -3.8883698    0.7910982 
   8     0.1320004    2.8678471   -2.2933071 
   8    -1.4764944   -1.0413812   -4.1599292 
   8     1.0398849   -0.0488120    2.7888642 
   8    -0.8837384    4.3362874    5.2474205 
   8    -2.0211916    6.7864686    0.9314908 
   8     4.2728106    3.6538058    3.0519900 
   8     2.9686411    6.4454786   -0.6844167 
   8    -3.9341845   -6.9871471   -0.9963371 
   8    -4.5656182   -4.6606534   -5.1982983 
   8     1.2198529   -8.0099091   -2.2686113 
   8     0.5981151   -5.4426583   -6.6273602 
   8     2.9483957   -4.4889661    5.1435051 
   8     5.9543498   -0.2059863    2.9746117 
   8     3.9075233   -6.9159216    0.7724922 
   8     7.0649300   -3.0552183   -0.7783692 
   8    -7.4388930    0.9857181   -0.8920657 
   8    -4.7513946    5.6080405   -2.0410271 
   8    -6.2297610   -0.7749022   -5.2336028 
   8    -3.3327780    3.5519127   -6.4866949 
   8     0.6347164    2.7095452   -7.5795119 
   8     4.7003774    4.1860462   -3.8210452 
   8     2.7368480   -1.9692156   -7.6237745 
   8     6.5827908   -0.0534565   -3.7179376 
   8    -6.7946014   -0.7585409    2.9033725 
   8    -3.0306414    0.8999784    6.3641468 
   8    -4.8925463   -5.2168494    2.7207243 
   8    -1.0396149   -3.8015759    6.2768516 
   6    -2.1621872    3.0558471    6.7705592 
   6    -3.8499523    7.1690124   -0.5106571 
   6     5.8449454    2.0284959    3.7379956 
   6     4.2992028    6.2492015   -2.5618562 
   6    -4.8587188   -7.0084964    1.1796590 
   6    -6.0162980   -2.9880388   -6.0328363 
   6     2.9586589   -8.4662864   -0.7336715 
   6     1.9985820   -4.1807065   -8.0496038 
   6     1.1406442   -4.6207041    6.6615848 
   6     7.8152495   -1.8446260   -2.5976404 
   6    -8.0850191    0.4136553    1.3146999 
   6    -1.4899512    3.6878255   -7.9562078 
   1    -7.2550707   -3.5339138   -7.6019558 
   1     3.7121991  -10.3944212   -0.7079979 
   1     7.2834856    2.6282249    5.1014250 
   1    -4.7464532    9.0335256   -0.4292580 
   1     2.6358752   -5.0651594   -9.8057140 
   1    -1.7384352    4.7334336   -9.7239898 
   1     5.2766260    7.9301324   -3.2711149 
   1     9.6930045   -2.2612947   -3.3629280 
   1    -5.7722042   -8.7692179    1.7822475 
   1    -9.9985326    0.9656386    1.8904178 
   1    -2.5548005    3.9041032    8.6182947 
   1     1.5013843   -5.5370638    8.4830231 
  13     3.4857439   -1.5626969  -15.7491836 
  13     3.2972977    4.2201695  -13.9514439 
  13     8.2129901   -2.8345381  -12.2972960 
  13     7.9874596    2.8414301  -11.0001560 
  13    12.2617421    0.2380706   -7.9903092 
  13     8.2283240    3.1820959   -4.6523917 
  13     8.5028147    8.0633049   -8.2055163 
   1     3.0849768   -2.2086747  -18.6301526 
   1     1.6043116   -2.3647842  -13.5716561 
   1     4.6230881    6.4593075  -15.4046980 
   1     0.3416483    4.1651247  -13.4621462 
   1     3.9671454    1.5593371  -15.5886300 
   1     6.3975440   -2.4776348  -14.9801868 
   1     7.1638220   -5.3274561  -11.0233915 
   1    10.9671788   -2.4210921  -13.3648162 
   1    11.1270667    1.7814315   -5.5078648 
   1    11.1191838    2.1543293  -10.1537175 
   1    10.7043719   -2.3522931   -8.0903362 
   1    15.2424658    0.2788088   -7.9466455 
   1     9.2264447    6.1401978   -5.8227726 
   1    10.6552841   10.1158835   -8.4757120 
   1     5.6099943    8.7964642   -7.8690823 
   1     8.7314406    5.9997449  -10.5293706 
   1     4.7554033    3.5456444  -11.2665289 
   1     7.0520895   -0.3350192  -10.8609902 
   1     8.6201304    2.9079445  -13.9425520 
   1     7.2310144    2.6373483   -7.7555605 
   1     9.3746771    3.8331187   -1.9328005 
