#
# Number of atoms
#
 88
#
# The current total energy in Eh
#
  -4708.501165338005
#
# The current gradient in Eh/bohr
#
      -0.000023861036
       0.000045037632
      -0.000004629441
       0.000006514924
      -0.000025020376
       0.000016045263
       0.000029573386
      -0.000052008186
      -0.000018234973
      -0.000105373851
      -0.000024288228
      -0.000040255435
       0.000007636462
      -0.000055178652
      -0.000075691251
      -0.000117041997
      -0.000069979112
       0.000060213505
       0.000002328852
       0.000023774844
      -0.000017047419
       0.000000787052
      -0.000035787501
       0.000001537788
      -0.000005337463
      -0.000016249973
       0.000004369805
       0.000037886315
       0.000014279143
       0.000030691207
       0.000023101858
       0.000041900670
      -0.000042114211
       0.000021308206
       0.000005968260
       0.000005950890
       0.000010912141
       0.000014428268
       0.000000331364
       0.000003243417
       0.000018037448
       0.000031900638
      -0.000004197056
       0.000002169026
      -0.000006505491
      -0.000000865567
       0.000009444979
      -0.000009092064
       0.000006184245
       0.000002916032
       0.000044191894
      -0.000068875820
       0.000054453950
      -0.000010956304
       0.000005932955
      -0.000046911723
       0.000000966044
       0.000014184211
       0.000023021195
       0.000038802697
      -0.000008074201
      -0.000017772774
       0.000028629777
      -0.000012654458
      -0.000004315366
       0.000004693185
       0.000020969416
       0.000033490448
       0.000020006203
      -0.000001088835
       0.000013312863
      -0.000019524638
      -0.000011453397
       0.000003400702
       0.000046834242
       0.000006796802
       0.000003929144
       0.000015758463
       0.000018166512
      -0.000012876786
       0.000027530367
       0.000036946277
       0.000009330925
      -0.000006863478
       0.000022564978
      -0.000018670328
      -0.000021081448
       0.000020557836
       0.000032696629
       0.000040278088
      -0.000022578002
      -0.000056334268
       0.000003057754
       0.000014936077
      -0.000009149877
      -0.000009672924
       0.000001700784
       0.000007637890
      -0.000006805180
       0.000004522678
       0.000054966514
       0.000022244338
       0.000030360635
       0.000012150036
      -0.000056869426
       0.000018319880
      -0.000024684899
       0.000000920141
      -0.000005062028
      -0.000027856058
       0.000006840481
      -0.000007270953
      -0.000034907376
      -0.000022649948
       0.000005906220
       0.000003455470
      -0.000002082622
      -0.000000577074
       0.000011841226
       0.000033212213
       0.000026876409
       0.000012455793
      -0.000036298373
       0.000027018146
      -0.000035365763
       0.000002983106
      -0.000022741644
       0.000034457661
      -0.000006474793
       0.000014758725
       0.000001876584
      -0.000029390574
       0.000000417106
       0.000013890248
      -0.000011410080
      -0.000023142383
       0.000008742185
       0.000001264760
       0.000033537634
       0.000002192504
      -0.000036508909
      -0.000039920992
       0.000006103289
       0.000013618868
       0.000002205584
       0.000006787886
      -0.000002929084
       0.000000385751
       0.000015295063
       0.000000807411
       0.000002755437
       0.000006314516
      -0.000002351140
       0.000001736584
      -0.000008078387
       0.000001699817
       0.000002531526
       0.000014392650
       0.000008320033
       0.000010738956
      -0.000012768116
       0.000004598075
       0.000005586644
      -0.000010462973
      -0.000016204101
       0.000002607697
       0.000010840395
      -0.000005129656
       0.000003078443
       0.000005200585
       0.000011841126
       0.000006811578
      -0.000008148003
       0.000006369344
       0.000003605295
      -0.000004472518
      -0.000005654906
      -0.000004221875
       0.000007653023
      -0.000003369224
       0.000018631362
      -0.000017493060
      -0.000050861862
       0.000092189792
      -0.000033086085
      -0.000061615838
       0.000071817581
       0.000004793523
      -0.000117811069
      -0.000124203831
      -0.000012562547
       0.000029310165
      -0.000020389882
       0.000080847888
       0.000096313784
      -0.000092482095
       0.000056873223
       0.000056412154
       0.000072057110
      -0.000018290226
      -0.000027110115
       0.000001573997
      -0.000006986645
       0.000024450730
       0.000027133098
       0.000029410420
      -0.000022896418
       0.000005066821
       0.000006206997
       0.000007529386
      -0.000038757471
       0.000000345761
       0.000007035923
      -0.000052720890
      -0.000015327781
       0.000111681830
      -0.000051084922
       0.000005538523
       0.000002048525
      -0.000022290172
      -0.000014839573
       0.000048787013
       0.000023004018
      -0.000020801244
      -0.000012891992
       0.000019661193
      -0.000012809339
      -0.000032426179
       0.000023093282
      -0.000092727713
      -0.000004474611
       0.000000658170
       0.000048668770
      -0.000044833009
       0.000017627974
       0.000013831805
      -0.000032917198
      -0.000003400437
      -0.000007539737
      -0.000014404453
      -0.000027052573
       0.000008735712
      -0.000004460168
      -0.000019330653
      -0.000014495986
      -0.000015498873
       0.000035373115
       0.000041257244
       0.000034746246
       0.000006404690
       0.000059519089
       0.000006143334
      -0.000025174085
      -0.000011422539
      -0.000003810862
       0.000012128792
      -0.000035581740
       0.000022602285
       0.000001089800
      -0.000009028712
      -0.000035251966
       0.000017721378
      -0.000009594395
       0.000023491455
#
# The atomic numbers and current coordinates in Bohr
#
  40     0.5519605    3.6401509    1.7150130 
  40    -1.1722938   -4.6321906   -3.0435813 
  40     3.3050567   -2.9801619    1.4402472 
  40    -3.9147291    1.9122169   -2.7705844 
  40     2.3102815    0.7504568   -4.4425466 
  40    -2.8528490   -1.7203167    3.2619953 
   8    -2.9523616    1.5128541    1.0427538 
   8     2.5160282   -2.5195513   -2.3572186 
   8    -0.6884377   -3.9148760    0.7938973 
   8     0.1799684    3.0156441   -2.1183648 
   8    -1.4993813   -0.8591533   -4.1507139 
   8     1.0456638   -0.0960631    2.9351560 
   8    -0.8622233    4.3112806    5.5987126 
   8    -1.9828209    6.9729548    1.2809923 
   8     4.4283000    3.6086611    3.3527538 
   8     3.1229412    6.5826246   -0.3499014 
   8    -3.9479087   -7.2202767   -1.0881819 
   8    -4.8605581   -4.4168951   -5.0365500 
   8     1.2300837   -8.0221343   -2.5182462 
   8     0.4300390   -5.2678933   -6.8481841 
   8     2.8570538   -4.7773204    5.2059316 
   8     6.0624338   -0.3492423    3.2366555 
   8     3.9142787   -7.0662223    0.6779681 
   8     7.1726259   -3.0746069   -0.7087701 
   8    -7.5181271    0.9519405   -0.8258655 
   8    -4.8039520    5.8708211   -1.7472146 
   8    -6.3317406   -0.3963232   -5.4127828 
   8    -3.3116872    3.9970153   -6.3566183 
   8     0.7060085    3.0685288   -7.4830189 
   8     4.8543495    4.3685928   -3.6108996 
   8     2.6932292   -1.7510721   -7.7205642 
   8     6.7209947    0.0397618   -3.6368495 
   8    -6.9781799   -0.5671316    3.1607101 
   8    -3.0355585    0.7766670    6.6543139 
   8    -5.2197847   -5.1073918    2.4348055 
   8    -1.2117861   -4.0787795    6.3341801 
   6    -2.1378368    2.9492398    7.1114089 
   6    -3.8620701    7.3915749   -0.1449666 
   6     5.9790004    1.9105555    4.0359113 
   6     4.5052700    6.4004689   -2.2458728 
   6    -5.0776652   -7.0461349    1.0118748 
   6    -6.2187183   -2.6995723   -6.0443156 
   6     2.9789335   -8.5450531   -0.9623184 
   6     1.8403690   -3.9368378   -8.2615551 
   6     0.9845845   -4.9709791    6.6938559 
   6     7.9637144   -1.7671042   -2.4960793 
   6    -8.2336701    0.5047130    1.4343547 
   6    -1.4185205    4.1408967   -7.8203607 
   1    -7.4777534   -3.3149575   -7.6497737 
   1     3.7763663  -10.5174694   -1.0436779 
   1     7.4524333    2.4774642    5.4652882 
   1    -4.7928216    9.2992450    0.0246342 
   1     2.3781589   -4.7332403  -10.1577608 
   1    -1.6321124    5.3107950   -9.5820009 
   1     5.5949669    8.1162912   -2.8686008 
   1     9.9377654   -2.1141185   -3.2090685 
   1    -6.1051236   -8.7873498    1.6892923 
   1   -10.2192194    1.1060535    1.9268831 
   1    -2.5059676    3.7569748    9.0472578 
   1     1.3050893   -6.0401685    8.5074630 
  13     4.5300505   -2.4331312  -16.1763881 
  13     2.8130806    3.5046366  -14.3442627 
  13     8.6628690   -2.7724174  -11.7812308 
  13     7.6630122    3.0264807  -11.2511612 
  13    11.9911933    0.0785449   -8.6014355 
  13     8.4964810    3.3401327   -4.7678247 
  13     8.2891357    8.3827455   -8.3548357 
   1     4.5236906   -2.8122148  -19.2064945 
   1     2.6551002   -3.9304684  -14.2659262 
   1     3.7270297    5.8381452  -16.0865617 
   1    -0.1422257    2.9232299  -13.7337540 
   1     4.0052019    0.7508162  -15.6501307 
   1     7.5452805   -2.7005207  -15.0651150 
   1     7.8062806   -5.5734687  -10.9192173 
   1    11.5592008   -1.7689207  -12.3876396 
   1    11.2794433    1.7861458   -5.8345810 
   1    10.9535148    2.5197644  -10.3639945 
   1     9.8478248   -2.1822148   -8.1200965 
   1    14.9747072   -0.5141340   -8.5416478 
   1     9.4027705    6.3723802   -6.0645393 
   1    10.4214858   10.5100573   -8.8771456 
   1     5.3818567    9.0678270   -7.6268894 
   1     8.2330276    6.3212834  -10.8150008 
   1     4.3275771    3.5568815  -11.4794982 
   1     6.7673680   -0.3055297  -11.0709892 
   1     8.3582526    3.0247772  -14.2493055 
   1     7.0479098    2.7779060   -7.8080137 
   1     9.6935712    4.0028827   -2.0014115 
