     0.00   0.00000000000000 
     2.05   0.00000000000000 
     4.11   0.00000000000000 
     6.16   0.00000000000000 
     8.21   0.00000000000000 
    10.26   0.00000000000000 
    12.32   0.00000000000000 
    14.37   0.00000000000000 
    16.42   0.00000000000000 
    18.48   0.00000000000000 
    20.53   0.00000000000000 
    22.58   0.00000000000000 
    24.63   0.00000000000000 
    26.69   0.00000000000000 
    28.74   0.00000000000000 
    30.79   0.00000000000000 
    32.84   0.00000000000000 
    34.90   0.00000000000000 
    36.95   0.00000000000000 
    39.00   0.00000000000000 
    41.06   0.00000000000000 
    43.11   0.00000000000000 
    45.16   0.00000000000000 
    47.21   0.00000000000000 
    49.27   0.00000000000000 
    51.32   0.00000000000000 
    53.37   0.00000000000000 
    55.43   0.00000000000000 
    57.48   0.00000000000000 
    59.53   0.00000000000000 
    61.58   0.00000000000000 
    63.64   0.00000000000000 
    65.69   0.00000000000000 
    67.74   0.00000000000000 
    69.79   0.00000000000000 
    71.85   0.00000000000000 
    73.90   0.00000000000000 
    75.95   0.00000000000000 
    78.01   0.00000000000000 
    80.06   0.00000000000000 
    82.11   0.00000000000000 
    84.16   0.00000000000000 
    86.22   0.00000000000000 
    88.27   0.00000000000000 
    90.32   0.00000000000000 
    92.38   0.00000000000000 
    94.43   0.00000000000000 
    96.48   0.00000000000000 
    98.53   0.00000000000000 
   100.59   0.00000000000000 
   102.64   0.00000000000000 
   104.69   0.00000000000000 
   106.74   0.00000000000000 
   108.80   0.00000000000000 
   110.85   0.00000000000000 
   112.90   0.00000000000000 
   114.96   0.00000000000000 
   117.01   0.00000000000000 
   119.06   0.00000000000000 
   121.11   0.00000000000000 
   123.17   0.00000000000000 
   125.22   0.00000000000000 
   127.27   0.00000000000000 
   129.33   0.00000000000000 
   131.38   0.00000000000000 
   133.43   0.00000000000000 
   135.48   0.00000000000000 
   137.54   0.00000000000000 
   139.59   0.00000000000000 
   141.64   0.00000000000000 
   143.70   0.00000000000000 
   145.75   0.00000000000000 
   147.80   0.00000000000000 
   149.85   0.00000000000000 
   151.91   0.00000000000000 
   153.96   0.00000000000000 
   156.01   0.00000000000000 
   158.06   0.00000000000000 
   160.12   0.00000000000000 
   162.17   0.00000000000000 
   164.22   0.00000000000000 
   166.28   0.00000000000000 
   168.33   0.00000000000000 
   170.38   0.00000000000000 
   172.43   0.00000000000000 
   174.49   0.00000000000000 
   176.54   0.00000000000000 
   178.59   0.00000000000000 
   180.65   0.00000000000000 
   182.70   0.00000000000000 
   184.75   0.00000000000000 
   186.80   0.00000000000000 
   188.86   0.00000000000000 
   190.91   0.00000000000000 
   192.96   0.00000000000000 
   195.01   0.00000000000000 
   197.07   0.00000000000000 
   199.12   0.00000000000000 
   201.17   0.00000000000000 
   203.23   0.00000000000000 
   205.28   0.00000000000000 
   207.33   0.00000000000000 
   209.38   0.00000000000000 
   211.44   0.00000000000000 
   213.49   0.00000000000000 
   215.54   0.00000000000000 
   217.60   0.00000000000000 
   219.65   0.00000000000000 
   221.70   0.00000000000000 
   223.75   0.00000000000000 
   225.81   0.00000000000000 
   227.86   0.00000000000000 
   229.91   0.00000000000000 
   231.96   0.00000000000000 
   234.02   0.00000000000000 
   236.07   0.00000000000000 
   238.12   0.00000000000000 
   240.18   0.00000000000000 
   242.23   0.00000000000000 
   244.28   0.00000000000000 
   246.33   0.00000000000000 
   248.39   0.00000000000000 
   250.44   0.00000000000000 
   252.49   0.00000000000000 
   254.55   0.00000000000000 
   256.60   0.00000000000000 
   258.65   0.00000000000000 
   260.70   0.00000000000000 
   262.76   0.00000000000000 
   264.81   0.00000000000000 
   266.86   0.00000000000000 
   268.91   0.00000000000000 
   270.97   0.00000000000000 
   273.02   0.00000000000000 
   275.07   0.00000000000000 
   277.13   0.00000000000000 
   279.18   0.00000000000000 
   281.23   0.00000000000000 
   283.28   0.00000000000000 
   285.34   0.00000000000000 
   287.39   0.00000000000000 
   289.44   0.00000000000000 
   291.50   0.00000000000000 
   293.55   0.00000000000000 
   295.60   0.00000000000000 
   297.65   0.00000000000000 
   299.71   0.00000000000000 
   301.76   0.00000000000000 
   303.81   0.00000000000000 
   305.87   0.00000000000000 
   307.92   0.00000000000000 
   309.97   0.00000000000000 
   312.02   0.00000000000000 
   314.08   0.00000000000000 
   316.13   0.00000000000000 
   318.18   0.00000000000000 
   320.23   0.00000000000000 
   322.29   0.00000000000000 
   324.34   0.00000000000000 
   326.39   0.00000000000000 
   328.45   0.00000000000000 
   330.50   0.00000000000000 
   332.55   0.00000000000000 
   334.60   0.00000000000000 
   336.66   0.00000000000000 
   338.71   0.00000000000000 
   340.76   0.00000000000000 
   342.82   0.00000000000000 
   344.87   0.00000000000000 
   346.92   0.00000000000000 
   348.97   0.00000000000000 
   351.03   0.00000000000000 
   353.08   0.00124614822069 
   355.13   0.00468923678724 
   357.18   0.01590492827813 
   359.24   0.04862485918778 
   361.29   0.13399299306779 
   363.34   0.33281501388755 
   365.40   0.74511073673120 
   367.45   1.50361213824531 
   369.50   2.73494070183019 
   371.55   4.48391215875017 
   373.61   6.62618210901933 
   375.66   8.82605702332774 
   377.71  10.59661560463549 
   379.77  11.46739367036013 
   381.82  11.18560176486343 
   383.87   9.83447260067509 
   385.92   7.79363183253315 
   387.98   5.56705853112336 
   390.03   3.58433653295978 
   392.08   2.08012225300194 
   394.13   1.08809303758439 
   396.19   0.51302708332292 
   398.24   0.21802768519874 
   400.29   0.08351799988071 
   402.35   0.02883670378761 
   404.40   0.00897445816793 
   406.45   0.00251749112810 
   408.50   0.00063653860773 
   410.56   0.00000000000000 
   412.61   0.00000000000000 
   414.66   0.00000000000000 
   416.72   0.00000000000000 
   418.77   0.00000000000000 
   420.82   0.00000000000000 
   422.87   0.00000000000000 
   424.93   0.00000000000000 
   426.98   0.00000000000000 
   429.03   0.00000000000000 
   431.09   0.00000000000000 
   433.14   0.00000000000000 
   435.19   0.00000000000000 
   437.24   0.00000000000000 
   439.30   0.00000000000000 
   441.35   0.00000000000000 
   443.40   0.00162690506136 
   445.45   0.00594120790832 
   447.51   0.01955619597137 
   449.56   0.05802178705383 
   451.61   0.15516540915906 
   453.67   0.37402084846622 
   455.72   0.81263177754908 
   457.77   1.59143491248839 
   459.82   2.80918959614500 
   461.88   4.46961701238074 
   463.93   6.41025396245174 
   465.98   8.28695688109378 
   468.04   9.65791423836187 
   470.09  10.15031929045816 
   472.14   9.62933972908538 
   474.19   8.26884750799171 
   476.25   6.47933238117730 
   478.30   4.73770732013177 
   480.35   3.41553641887896 
   482.40   2.68257391052939 
   484.46   2.50220183099903 
   486.51   2.68949353774671 
   488.56   2.99482772844528 
   490.62   3.18817396467326 
   492.67   3.12617985226239 
   494.72   2.78392043527447 
   496.77   2.24034141040290 
   498.83   1.62610557093244 
   500.88   1.06456621436460 
   502.93   0.62819389347904 
   504.99   0.33412720033781 
   507.04   0.16018691705329 
   509.09   0.06922123514852 
   511.14   0.02696179086249 
   513.20   0.00946575407057 
   515.25   0.00299542733131 
   517.30   0.00085439647781 
   519.35   0.00021966314665 
   521.41   0.00000000000000 
   523.46   0.00000000000000 
   525.51   0.00000000000000 
   527.57   0.00000000000000 
   529.62   0.00000000000000 
   531.67   0.00000000000000 
   533.72   0.00000000000000 
   535.78   0.00000000000000 
   537.83   0.00000000000000 
   539.88   0.00000000000000 
   541.94   0.00000000000000 
   543.99   0.00000000000000 
   546.04   0.00000000000000 
   548.09   0.00000000000000 
   550.15   0.00000000000000 
   552.20   0.00000000000000 
   554.25   0.00000000000000 
   556.30   0.00000000000000 
   558.36   0.00000000000000 
   560.41   0.00000000000000 
   562.46   0.00000000000000 
   564.52   0.00000000000000 
   566.57   0.00000000000000 
   568.62   0.00000000000000 
   570.67   0.00000000000000 
   572.73   0.00000000000000 
   574.78   0.00000000000000 
   576.83   0.00000000000000 
   578.89   0.00000000000000 
   580.94   0.00000000000000 
   582.99   0.00000000000000 
   585.04   0.00000000000000 
   587.10   0.00000000000000 
   589.15   0.00000000000000 
   591.20   0.00000000000000 
   593.26   0.00000000000000 
   595.31   0.00000000000000 
   597.36   0.00000000000000 
   599.41   0.00000000000000 
   601.47   0.00000000000000 
   603.52   0.00000000000000 
   605.57   0.00000000000000 
   607.62   0.00000000000000 
   609.68   0.00000000000000 
   611.73   0.00000000000000 
   613.78   0.00000000000000 
   615.84   0.00000000000000 
   617.89   0.00000000000000 
   619.94   0.00000000000000 
   621.99   0.00000000000000 
   624.05   0.00000000000000 
   626.10   0.00000000000000 
   628.15   0.00000000000000 
   630.21   0.00000000000000 
   632.26   0.00000000000000 
   634.31   0.00000000000000 
   636.36   0.00000000000000 
   638.42   0.00000000000000 
   640.47   0.00000000000000 
   642.52   0.00000000000000 
   644.57   0.00000000000000 
   646.63   0.00000000000000 
   648.68   0.00000000000000 
   650.73   0.00000000000000 
   652.79   0.00000000000000 
   654.84   0.00000000000000 
   656.89   0.00000000000000 
   658.94   0.00000000000000 
   661.00   0.00000000000000 
   663.05   0.00000000000000 
   665.10   0.00000000000000 
   667.16   0.00000000000000 
   669.21   0.00000000000000 
   671.26   0.00000000000000 
   673.31   0.00000000000000 
   675.37   0.00000000000000 
   677.42   0.00000000000000 
   679.47   0.00000000000000 
   681.52   0.00000000000000 
   683.58   0.00000000000000 
   685.63   0.00000000000000 
   687.68   0.00000000000000 
   689.74   0.00000000000000 
   691.79   0.00000000000000 
   693.84   0.00000000000000 
   695.89   0.00000000000000 
   697.95   0.00000000000000 
   700.00   0.00000000000000 
   702.05   0.00000000000000 
   704.11   0.00000000000000 
   706.16   0.00000000000000 
   708.21   0.00000000000000 
   710.26   0.00000000000000 
   712.32   0.00000000000000 
   714.37   0.00000000000000 
   716.42   0.00000000000000 
   718.48   0.00000000000000 
   720.53   0.00000000000000 
   722.58   0.00000000000000 
   724.63   0.00000000000000 
   726.69   0.00000000000000 
   728.74   0.00095037301683 
   730.79   0.00376375808064 
   732.84   0.01343526987667 
   734.90   0.04322830213948 
   736.95   0.12536810227277 
   739.00   0.32772005230765 
   741.06   0.77217559089300 
   743.11   1.64162102326727 
   745.16   3.14592757054614 
   747.21   5.44016542280420 
   749.27   8.49910320899095 
   751.32  12.02434776703338 
   753.37  15.47832782679742 
   755.43  18.29365901277695 
   757.48  20.17953996252982 
   759.53  21.32764536926923 
   761.58  22.32823402074051 
   763.64  23.78294439281335 
   765.69  25.83605933061367 
   767.74  27.95126837765643 
   769.79  29.12469898386820 
   771.85  28.42663808837802 
   773.90  25.52816232082687 
   775.95  20.88220493640400 
   778.01  15.47781802408974 
   780.06  10.36728255403773 
   782.11   6.26713340265068 
   784.16   3.41695996610165 
   786.22   1.67926823739941 
   788.27   0.74429078066694 
   790.32   0.29734613342489 
   792.38   0.10707277080419 
   794.43   0.03475304616734 
   796.48   0.01016725704020 
   798.53   0.00268109263122 
   800.59   0.00000000000000 
   802.64   0.00000000000000 
   804.69   0.00000000000000 
   806.74   0.00000000000000 
   808.80   0.00000000000000 
   810.85   0.00000000000000 
   812.90   0.00000000000000 
   814.96   0.00000000000000 
   817.01   0.00000000000000 
   819.06   0.00000000000000 
   821.11   0.00000000000000 
   823.17   0.00000000000000 
   825.22   0.00000000000000 
   827.27   0.00000000000000 
   829.33   0.00000000000000 
   831.38   0.00000000000000 
   833.43   0.00000000000000 
   835.48   0.00000000000000 
   837.54   0.00000000000000 
   839.59   0.00000000000000 
   841.64   0.00000000000000 
   843.70   0.00000000000000 
   845.75   0.00000000000000 
   847.80   0.00000000000000 
   849.85   0.00000000000000 
   851.91   0.00000000000000 
   853.96   0.00000000000000 
   856.01   0.00000000000000 
   858.06   0.00000000000000 
   860.12   0.00000000000000 
   862.17   0.00000000000000 
   864.22   0.00000000000000 
   866.28   0.00000000000000 
   868.33   0.00000000000000 
   870.38   0.00000000000000 
   872.43   0.00000000000000 
   874.49   0.00000000000000 
   876.54   0.00000000000000 
   878.59   0.00000000000000 
   880.65   0.00000000000000 
   882.70   0.00000000000000 
   884.75   0.00000000000000 
   886.80   0.00000000000000 
   888.86   0.00000000000000 
   890.91   0.00000000000000 
   892.96   0.00000000000000 
   895.01   0.00000000000000 
   897.07   0.00000000000000 
   899.12   0.00000000000000 
   901.17   0.00000000000000 
   903.23   0.00000000000000 
   905.28   0.00000000000000 
   907.33   0.00000000000000 
   909.38   0.00000000000000 
   911.44   0.00000000000000 
   913.49   0.00000000000000 
   915.54   0.00000000000000 
   917.60   0.00000000000000 
   919.65   0.00000000000000 
   921.70   0.00000000000000 
   923.75   0.00000000000000 
   925.81   0.00000000000000 
   927.86   0.00000000000000 
   929.91   0.00000000000000 
   931.96   0.00000000000000 
   934.02   0.00000000000000 
   936.07   0.00000000000000 
   938.12   0.00000000000000 
   940.18   0.00000000000000 
   942.23   0.00000000000000 
   944.28   0.00000000000000 
   946.33   0.00000000000000 
   948.39   0.00000000000000 
   950.44   0.00000000000000 
   952.49   0.00000000000000 
   954.55   0.00000000000000 
   956.60   0.00000000000000 
   958.65   0.00000000000000 
   960.70   0.00000000000000 
   962.76   0.00000000000000 
   964.81   0.00000000000000 
   966.86   0.00000000000000 
   968.91   0.00000000000000 
   970.97   0.00000000000000 
   973.02   0.00000000000000 
   975.07   0.00000000000000 
   977.13   0.00000000000000 
   979.18   0.00000000000000 
   981.23   0.00000000000000 
   983.28   0.00000000000000 
   985.34   0.00000000000000 
   987.39   0.00000000000000 
   989.44   0.00000000000000 
   991.50   0.00000000000000 
   993.55   0.00000000000000 
   995.60   0.00000000000000 
   997.65   0.00000000000000 
   999.71   0.00000000000000 
  1001.76   0.00000000000000 
  1003.81   0.00000000000000 
  1005.87   0.00000000000000 
  1007.92   0.00000000000000 
  1009.97   0.00000000000000 
  1012.02   0.00000000000000 
  1014.08   0.00000000000000 
  1016.13   0.00000000000000 
  1018.18   0.00000000000000 
  1020.23   0.00000000000000 
  1022.29   0.00000000000000 
  1024.34   0.00000000000000 
  1026.39   0.00000000000000 
  1028.45   0.00000000000000 
  1030.50   0.00000000000000 
  1032.55   0.00000000000000 
  1034.60   0.00000000000000 
  1036.66   0.00000000000000 
  1038.71   0.00000000000000 
  1040.76   0.00000000000000 
  1042.82   0.00000000000000 
  1044.87   0.00000000000000 
  1046.92   0.00000000000000 
  1048.97   0.00000000000000 
  1051.03   0.00000000000000 
  1053.08   0.00000000000000 
  1055.13   0.00000000000000 
  1057.18   0.00000000000000 
  1059.24   0.00000000000000 
  1061.29   0.00000000000000 
  1063.34   0.00000000000000 
  1065.40   0.00000000000000 
  1067.45   0.00000000000000 
  1069.50   0.00000000000000 
  1071.55   0.00000000000000 
  1073.61   0.00000000000000 
  1075.66   0.00000000000000 
  1077.71   0.00000000000000 
  1079.77   0.00000000000000 
  1081.82   0.00000000000000 
  1083.87   0.00000000000000 
  1085.92   0.00000000000000 
  1087.98   0.00000000000000 
  1090.03   0.00000000000000 
  1092.08   0.00000000000000 
  1094.13   0.00000000000000 
  1096.19   0.00000000000000 
  1098.24   0.00000000000000 
  1100.29   0.00000000000000 
  1102.35   0.00000000000000 
  1104.40   0.00000000000000 
  1106.45   0.00000000000000 
  1108.50   0.00000000000000 
  1110.56   0.00000000000000 
  1112.61   0.00000000000000 
  1114.66   0.00000000000000 
  1116.72   0.00000000000000 
  1118.77   0.00000000000000 
  1120.82   0.00000000000000 
  1122.87   0.00000000000000 
  1124.93   0.00000000000000 
  1126.98   0.00000000000000 
  1129.03   0.00000000000000 
  1131.09   0.00000000000000 
  1133.14   0.00000000000000 
  1135.19   0.00000000000000 
  1137.24   0.00000000000000 
  1139.30   0.00000000000000 
  1141.35   0.00000000000000 
  1143.40   0.00000000000000 
  1145.45   0.00000000000000 
  1147.51   0.00000000000000 
  1149.56   0.00000000000000 
  1151.61   0.00000000000000 
  1153.67   0.00000000000000 
  1155.72   0.00000000000000 
  1157.77   0.00000000000000 
  1159.82   0.00000000000000 
  1161.88   0.00000000000000 
  1163.93   0.00000000000000 
  1165.98   0.00000000000000 
  1168.04   0.00000000000000 
  1170.09   0.00000000000000 
  1172.14   0.00000000000000 
  1174.19   0.00000000000000 
  1176.25   0.00000000000000 
  1178.30   0.00000000000000 
  1180.35   0.00000000000000 
  1182.40   0.00000000000000 
  1184.46   0.00000000000000 
  1186.51   0.00000000000000 
  1188.56   0.00000000000000 
  1190.62   0.00000000000000 
  1192.67   0.00000000000000 
  1194.72   0.00000000000000 
  1196.77   0.00000000000000 
  1198.83   0.00000000000000 
  1200.88   0.00000000000000 
  1202.93   0.00000000000000 
  1204.99   0.00000000000000 
  1207.04   0.00000000000000 
  1209.09   0.00000000000000 
  1211.14   0.00000000000000 
  1213.20   0.00000000000000 
  1215.25   0.00000000000000 
  1217.30   0.00000000000000 
  1219.35   0.00000000000000 
  1221.41   0.00000000000000 
  1223.46   0.00000000000000 
  1225.51   0.00000000000000 
  1227.57   0.00000000000000 
  1229.62   0.00000000000000 
  1231.67   0.00000000000000 
  1233.72   0.00000000000000 
  1235.78   0.00000000000000 
  1237.83   0.00000000000000 
  1239.88   0.00000000000000 
  1241.94   0.00000000000000 
  1243.99   0.00000000000000 
  1246.04   0.00000000000000 
  1248.09   0.00000000000000 
  1250.15   0.00000000000000 
  1252.20   0.00000000000000 
  1254.25   0.00000000000000 
  1256.30   0.00000000000000 
  1258.36   0.00000000000000 
  1260.41   0.00000000000000 
  1262.46   0.00000000000000 
  1264.52   0.00000000000000 
  1266.57   0.00000000000000 
  1268.62   0.00000000000000 
  1270.67   0.00000000000000 
  1272.73   0.00000000000000 
  1274.78   0.00000000000000 
  1276.83   0.00000000000000 
  1278.89   0.00000000000000 
  1280.94   0.00000000000000 
  1282.99   0.00000000000000 
  1285.04   0.00000000000000 
  1287.10   0.00000000000000 
  1289.15   0.00000000000000 
  1291.20   0.00000000000000 
  1293.26   0.00000000000000 
  1295.31   0.00000000000000 
  1297.36   0.00000000000000 
  1299.41   0.00000000000000 
  1301.47   0.00000000000000 
  1303.52   0.00000000000000 
  1305.57   0.00000000000000 
  1307.62   0.00000000000000 
  1309.68   0.00000000000000 
  1311.73   0.00000000000000 
  1313.78   0.00000000000000 
  1315.84   0.00000000000000 
  1317.89   0.00000000000000 
  1319.94   0.00000000000000 
  1321.99   0.00000000000000 
  1324.05   0.00000000000000 
  1326.10   0.00000000000000 
  1328.15   0.00000000000000 
  1330.21   0.00000000000000 
  1332.26   0.00000000000000 
  1334.31   0.00000000000000 
  1336.36   0.00000000000000 
  1338.42   0.00000000000000 
  1340.47   0.00000000000000 
  1342.52   0.00000000000000 
  1344.57   0.00000000000000 
  1346.63   0.00000000000000 
  1348.68   0.00000000000000 
  1350.73   0.00000000000000 
  1352.79   0.00000000000000 
  1354.84   0.00000000000000 
  1356.89   0.00000000000000 
  1358.94   0.00000000000000 
  1361.00   0.00000000000000 
  1363.05   0.00000000000000 
  1365.10   0.00000000000000 
  1367.16   0.00000000000000 
  1369.21   0.00000000000000 
  1371.26   0.00000000000000 
  1373.31   0.00000000000000 
  1375.37   0.00000000000000 
  1377.42   0.00000000000000 
  1379.47   0.00000000000000 
  1381.52   0.00000000000000 
  1383.58   0.00000000000000 
  1385.63   0.00000000000000 
  1387.68   0.00000000000000 
  1389.74   0.00000000000000 
  1391.79   0.00000000000000 
  1393.84   0.00000000000000 
  1395.89   0.00000000000000 
  1397.95   0.00000000000000 
  1400.00   0.00000000000000 
  1402.05   0.00000000000000 
  1404.11   0.00000000000000 
  1406.16   0.00000000000000 
  1408.21   0.00053524776304 
  1410.26   0.00210029620594 
  1412.32   0.00742853758012 
  1414.37   0.02368226255399 
  1416.42   0.06805188328512 
  1418.48   0.17626017432840 
  1420.53   0.41149572919140 
  1422.58   0.86591160264143 
  1424.63   1.64239977066626 
  1426.69   2.80789770882218 
  1428.74   4.32693906519834 
  1430.79   6.01004004801602 
  1432.84   7.52438558321396 
  1434.90   8.49105803696905 
  1436.95   8.63673642376089 
  1439.00   7.91834851367542 
  1441.06   6.54359857635635 
  1443.11   4.87411504629219 
  1445.16   3.27244225977392 
  1447.21   1.98036525889033 
  1449.27   1.08022865997379 
  1451.32   0.53110841442180 
  1453.37   0.23536818510504 
  1455.43   0.09401765722646 
  1457.48   0.03385074112343 
  1459.53   0.01098560622786 
  1461.58   0.00321349008583 
  1463.64   0.00084728006975 
  1465.69   0.00000000000000 
  1467.74   0.00000000000000 
  1469.79   0.00000000000000 
  1471.85   0.00000000000000 
  1473.90   0.00000000000000 
  1475.95   0.00000000000000 
  1478.01   0.00000000000000 
  1480.06   0.00000000000000 
  1482.11   0.00000000000000 
  1484.16   0.00000000000000 
  1486.22   0.00000000000000 
  1488.27   0.00000000000000 
  1490.32   0.00000000000000 
  1492.38   0.00000000000000 
  1494.43   0.00000000000000 
  1496.48   0.00000000000000 
  1498.53   0.00000000000000 
  1500.59   0.00000000000000 
  1502.64   0.00000000000000 
  1504.69   0.00000000000000 
  1506.74   0.00000000000000 
  1508.80   0.00000000000000 
  1510.85   0.00000000000000 
  1512.90   0.00000000000000 
  1514.96   0.00000000000000 
  1517.01   0.00000000000000 
  1519.06   0.00000000000000 
  1521.11   0.00000000000000 
  1523.17   0.00000000000000 
  1525.22   0.00000000000000 
  1527.27   0.00000000000000 
  1529.33   0.00000000000000 
  1531.38   0.00000000000000 
  1533.43   0.00000000000000 
  1535.48   0.00000000000000 
  1537.54   0.00909416524098 
  1539.59   0.03359086886713 
  1541.64   0.11183473782165 
  1543.70   0.33560567835682 
  1545.75   0.90777656473395 
  1547.80   2.21322579439124 
  1549.85   4.86373124882846 
  1551.91   9.63408571213050 
  1553.96  17.20079548247578 
  1556.01  27.68111938646242 
  1558.06  40.15280176484041 
  1560.12  52.49828919651275 
  1562.17  61.86877786098226 
  1564.22  65.71961542443557 
  1566.28  62.92389237585886 
  1568.33  54.30417694517787 
  1570.38  42.24234137295382 
  1572.43  29.61827887973543 
  1574.49  18.71840088443411 
  1576.54  10.66288585709034 
  1578.59   5.47492111828529 
  1580.65   2.53383343399023 
  1582.70   1.05700087885515 
  1584.75   0.39743830723443 
  1586.80   0.13469801335620 
  1588.86   0.04114809618978 
  1590.91   0.01133014302952 
  1592.96   0.00000000000000 
  1595.01   0.00000000000000 
  1597.07   0.00000000000000 
  1599.12   0.00000000000000 
  1601.17   0.00000000000000 
  1603.23   0.00000000000000 
  1605.28   0.00000000000000 
  1607.33   0.00000000000000 
  1609.38   0.00000000000000 
  1611.44   0.00000000000000 
  1613.49   0.00000000000000 
  1615.54   0.00000000000000 
  1617.60   0.00000000000000 
  1619.65   0.00000000000000 
  1621.70   0.00000000000000 
  1623.75   0.00000000000000 
  1625.81   0.00000000000000 
  1627.86   0.00000000000000 
  1629.91   0.00000000000000 
  1631.96   0.00000000000000 
  1634.02   0.00000000000000 
  1636.07   0.00000000000000 
  1638.12   0.00000000000000 
  1640.18   0.00000000000000 
  1642.23   0.00000000000000 
  1644.28   0.00000000000000 
  1646.33   0.00000000000000 
  1648.39   0.00000000000000 
  1650.44   0.00000000000000 
  1652.49   0.00000000000000 
  1654.55   0.00000000000000 
  1656.60   0.00000000000000 
  1658.65   0.00000000000000 
  1660.70   0.00000000000000 
  1662.76   0.00000000000000 
  1664.81   0.00000000000000 
  1666.86   0.00000000000000 
  1668.91   0.00000000000000 
  1670.97   0.00000000000000 
  1673.02   0.00000000000000 
  1675.07   0.00000000000000 
  1677.13   0.00000000000000 
  1679.18   0.00000000000000 
  1681.23   0.00000000000000 
  1683.28   0.00000000000000 
  1685.34   0.00000000000000 
  1687.39   0.00000000000000 
  1689.44   0.00000000000000 
  1691.50   0.00000000000000 
  1693.55   0.00000000000000 
  1695.60   0.00000000000000 
  1697.65   0.00000000000000 
  1699.71   0.00000000000000 
  1701.76   0.00000000000000 
  1703.81   0.00000000000000 
  1705.87   0.00000000000000 
  1707.92   0.00000000000000 
  1709.97   0.00000000000000 
  1712.02   0.00000000000000 
  1714.08   0.00000000000000 
  1716.13   0.00000000000000 
  1718.18   0.00000000000000 
  1720.23   0.00000000000000 
  1722.29   0.00000000000000 
  1724.34   0.00000000000000 
  1726.39   0.00000000000000 
  1728.45   0.00000000000000 
  1730.50   0.00000000000000 
  1732.55   0.00000000000000 
  1734.60   0.00000000000000 
  1736.66   0.00000000000000 
  1738.71   0.00000000000000 
  1740.76   0.00000000000000 
  1742.82   0.00000000000000 
  1744.87   0.00000000000000 
  1746.92   0.00000000000000 
  1748.97   0.00000000000000 
  1751.03   0.00000000000000 
  1753.08   0.00000000000000 
  1755.13   0.00000000000000 
  1757.18   0.00000000000000 
  1759.24   0.00000000000000 
  1761.29   0.00000000000000 
  1763.34   0.00000000000000 
  1765.40   0.00000000000000 
  1767.45   0.00000000000000 
  1769.50   0.00000000000000 
  1771.55   0.00000000000000 
  1773.61   0.00000000000000 
  1775.66   0.00000000000000 
  1777.71   0.00000000000000 
  1779.77   0.00000000000000 
  1781.82   0.00000000000000 
  1783.87   0.00000000000000 
  1785.92   0.00000000000000 
  1787.98   0.00000000000000 
  1790.03   0.00000000000000 
  1792.08   0.00000000000000 
  1794.13   0.00000000000000 
  1796.19   0.00000000000000 
  1798.24   0.00000000000000 
  1800.29   0.00000000000000 
  1802.35   0.00000000000000 
  1804.40   0.00000000000000 
  1806.45   0.00000000000000 
  1808.50   0.00000000000000 
  1810.56   0.00000000000000 
  1812.61   0.00000000000000 
  1814.66   0.00000000000000 
  1816.72   0.00000000000000 
  1818.77   0.00000000000000 
  1820.82   0.00000000000000 
  1822.87   0.00000000000000 
  1824.93   0.00000000000000 
  1826.98   0.00000000000000 
  1829.03   0.00000000000000 
  1831.09   0.00000000000000 
  1833.14   0.00000000000000 
  1835.19   0.00000000000000 
  1837.24   0.00000000000000 
  1839.30   0.00000000000000 
  1841.35   0.00000000000000 
  1843.40   0.00000000000000 
  1845.45   0.00000000000000 
  1847.51   0.00000000000000 
  1849.56   0.00000000000000 
  1851.61   0.00000000000000 
  1853.67   0.00000000000000 
  1855.72   0.00000000000000 
  1857.77   0.00000000000000 
  1859.82   0.00000000000000 
  1861.88   0.00000000000000 
  1863.93   0.00000000000000 
  1865.98   0.00000000000000 
  1868.04   0.00000000000000 
  1870.09   0.00000000000000 
  1872.14   0.00000000000000 
  1874.19   0.00000000000000 
  1876.25   0.00000000000000 
  1878.30   0.00000000000000 
  1880.35   0.00000000000000 
  1882.40   0.00000000000000 
  1884.46   0.00000000000000 
  1886.51   0.00000000000000 
  1888.56   0.00000000000000 
  1890.62   0.00000000000000 
  1892.67   0.00000000000000 
  1894.72   0.00000000000000 
  1896.77   0.00000000000000 
  1898.83   0.00000000000000 
  1900.88   0.00000000000000 
  1902.93   0.00000000000000 
  1904.99   0.00000000000000 
  1907.04   0.00000000000000 
  1909.09   0.00000000000000 
  1911.14   0.00000000000000 
  1913.20   0.00000000000000 
  1915.25   0.00000000000000 
  1917.30   0.00000000000000 
  1919.35   0.00000000000000 
  1921.41   0.00000000000000 
  1923.46   0.00000000000000 
  1925.51   0.00000000000000 
  1927.57   0.00000000000000 
  1929.62   0.00000000000000 
  1931.67   0.00000000000000 
  1933.72   0.00000000000000 
  1935.78   0.00000000000000 
  1937.83   0.00000000000000 
  1939.88   0.00000000000000 
  1941.94   0.00000000000000 
  1943.99   0.00000000000000 
  1946.04   0.00000000000000 
  1948.09   0.00000000000000 
  1950.15   0.00000000000000 
  1952.20   0.00000000000000 
  1954.25   0.00000000000000 
  1956.30   0.00000000000000 
  1958.36   0.00000000000000 
  1960.41   0.00000000000000 
  1962.46   0.00000000000000 
  1964.52   0.00000000000000 
  1966.57   0.00000000000000 
  1968.62   0.00000000000000 
  1970.67   0.00000000000000 
  1972.73   0.00000000000000 
  1974.78   0.00000000000000 
  1976.83   0.00000000000000 
  1978.89   0.00000000000000 
  1980.94   0.00000000000000 
  1982.99   0.00000000000000 
  1985.04   0.00000000000000 
  1987.10   0.00000000000000 
  1989.15   0.02431028535523 
  1991.20   0.09487104090280 
  1993.26   0.33371395228821 
  1995.31   1.05806452473345 
  1997.36   3.02375801323903 
  1999.41   7.78895152795286 
  2001.47  18.09454945834597 
  2003.52  37.88412061843823 
  2005.57  71.51608979005341 
  2007.62 121.75705709520153 
  2009.68 187.03198054845424 
  2011.73 259.41633973950286 
  2013.78 325.31951908769327 
  2015.84 369.69102689201833 
  2017.89 382.16337495077636 
  2019.94 361.63401183126280 
  2021.99 316.32504970874402 
  2024.05 259.31897592059443 
  2026.10 202.60048456143832 
  2028.15 153.21756331450911 
  2030.21 113.06982333693738 
  2032.26  81.13719368298423 
  2034.31  55.86834400975442 
  2036.36  36.29348058189611 
  2038.42  21.90642782291336 
  2040.47  12.14639578295296 
  2042.52   6.13994604376950 
  2044.57   2.81628040485253 
  2046.63   1.16100397259325 
  2048.68   0.43655247828642 
  2050.73   0.14795726688252 
  2052.79   0.04519945856417 
  2054.84   0.01244592715371 
  2056.89   0.00000000000000 
  2058.94   0.00000000000000 
  2061.00   0.00000000000000 
  2063.05   0.00000000000000 
  2065.10   0.00000000000000 
  2067.16   0.00000000000000 
  2069.21   0.00000000000000 
  2071.26   0.00000000000000 
  2073.31   0.00000000000000 
  2075.37   0.00000000000000 
  2077.42   0.00000000000000 
  2079.47   0.00000000000000 
  2081.52   0.00000000000000 
  2083.58   0.00000000000000 
  2085.63   0.00000000000000 
  2087.68   0.00000000000000 
  2089.74   0.00000000000000 
  2091.79   0.00000000000000 
  2093.84   0.00000000000000 
  2095.89   0.00000000000000 
  2097.95   0.00000000000000 
  2100.00   0.00000000000000 
