#
# Number of atoms
#
 32
#
# The current total energy in Eh
#
  -1951.213699255448
#
# The current gradient in Eh/bohr
#
      -0.000014957857
       0.000010940981
      -0.000002736992
      -0.000013089374
       0.000001958146
       0.000017169775
      -0.000003986949
      -0.000007869423
      -0.000007181960
      -0.000005816450
       0.000008313678
      -0.000012740918
       0.000011659399
       0.000009375074
       0.000000100257
       0.000015469838
      -0.000012968090
       0.000008219949
       0.000000941834
      -0.000014469057
      -0.000009191048
       0.000018895924
       0.000001068285
      -0.000005385412
       0.000021167847
      -0.000013518475
      -0.000003188713
       0.000013202346
      -0.000013360381
      -0.000007327886
       0.000012374101
      -0.000000192401
      -0.000001537171
       0.000012612004
      -0.000009896281
       0.000010090549
      -0.000000285683
       0.000003156401
       0.000008537465
       0.000003686154
      -0.000009920895
       0.000019684403
      -0.000000662547
      -0.000007002725
       0.000015785959
      -0.000007840870
      -0.000001548616
       0.000016582253
       0.000008548695
      -0.000013056553
       0.000001335705
      -0.000005169920
       0.000000975669
       0.000002166418
      -0.000002230334
       0.000006333153
      -0.000007135306
      -0.000008308005
       0.000009719025
      -0.000004938253
      -0.000009826584
       0.000004385444
      -0.000011880917
      -0.000003688800
       0.000015551191
      -0.000010775391
      -0.000011874366
       0.000011670336
      -0.000014829717
       0.000010932536
       0.000000043291
      -0.000012654299
       0.000013101183
      -0.000010391550
      -0.000008052980
       0.000000706567
       0.000001435010
      -0.000006679672
      -0.000014960018
       0.000006268698
       0.000012764097
      -0.000010322088
       0.000003514406
       0.000011213460
      -0.000014357909
       0.000007275645
      -0.000002314929
      -0.000013875112
       0.000004422140
       0.000007744518
      -0.000000419464
       0.000002890681
      -0.000002896321
      -0.000001626109
       0.000004897228
       0.000000053129
#
# The atomic numbers and current coordinates in Bohr
#
  13    -0.6155508    4.5983171    1.1154165 
  13    -5.6727998    1.9432960    2.4978342 
  13    -0.2921081   -0.4369126    1.6519118 
  13     4.8591226    2.4912790    1.5252775 
  13     0.2721217   -1.1484233    7.8145967 
  13    -3.9745574    3.3720395    8.3256310 
  13     4.4031984    3.5193864    7.7379485 
  13     0.5974376    2.5398398   12.3966065 
   1     0.6234300    2.6128550   15.3653860 
   1     0.4356062   -0.2903180   11.1296800 
   1     3.0874919    3.6427503   10.9752249 
   1    -1.7710377    3.9001425   10.9901985 
   1    -3.0384488    5.8332056    6.9326505 
   1    -6.2503405    2.7151378   10.1233764 
   1    -5.8476377    2.2397129    5.5341637 
   1    -8.2346828    1.4677184    1.0719363 
   1    -2.2799317    0.6948175    7.6299586 
   1    -3.5942609   -0.3336990    2.1353339 
   1     0.0716123   -1.5685340    4.6011700 
   1    -0.3530045   -2.8155410   -0.1437928 
   1     3.0025065    0.0076082    1.4557575 
   1     5.5493266    2.7292342    4.4872318 
   1     7.1522021    2.3231201   -0.3556832 
   1     7.1374768    3.0327809    8.7980612 
   1     0.3740648   -4.0176323    8.5618605 
   1     2.7516137    0.7485196    7.3361051 
   1    -0.8213060    7.4912055    0.5304022 
   1    -4.0234185    4.3428866    1.4581387 
   1     2.8131671    4.7175910    0.8788886 
   1    -0.6484287    2.0635670   -0.7578791 
   1     2.8783366    5.9080164    6.8183270 
   1    -0.2849247    2.6592656    3.5406088 
