Corrected dielectric energy   =     -0.009470632
Total C-PCM charge            =      0.000000000
C-PCM corrected charges:
    -0.000007448
    -0.000410312
    -0.001419042
    -0.000967398
    -0.000009284
     0.000376736
    -0.000879584
    -0.000513173
    -0.001758563
    -0.000289964
    -0.000015260
    -0.001360619
    -0.001192885
    -0.000492386
    -0.000396926
     0.000497251
     0.000199051
    -0.000000077
    -0.000006958
    -0.000000748
    -0.000517649
    -0.000718654
    -0.000096967
     0.000461099
     0.000724185
    -0.000002482
    -0.001609691
    -0.001516896
    -0.000000055
    -0.000979468
    -0.000970789
    -0.002028636
    -0.001420928
    -0.001460342
    -0.001086235
     0.000499311
     0.000221146
    -0.001882913
    -0.001556804
    -0.000000009
    -0.000751426
    -0.000435887
    -0.000342437
    -0.000152803
    -0.000672478
    -0.000053899
     0.000553781
     0.000001524
    -0.000000015
    -0.001206690
    -0.000847276
    -0.000487380
    -0.000236388
    -0.000157163
    -0.000119060
    -0.000278237
    -0.000008156
    -0.000125109
    -0.001168618
    -0.001153993
    -0.000815763
    -0.000808343
    -0.000918092
    -0.000161576
    -0.000000002
    -0.000008018
    -0.001541905
    -0.001476049
    -0.000769138
    -0.000776142
    -0.000000721
    -0.000000009
    -0.000014326
     0.000697611
     0.000436398
     0.000850602
    -0.001817905
    -0.001248261
    -0.000085402
    -0.001378762
    -0.001596839
    -0.001962838
    -0.001475851
    -0.001281261
    -0.001118335
     0.000153727
     0.000023295
    -0.000163153
    -0.000177838
    -0.001383243
    -0.001371588
    -0.001057773
    -0.001355476
    -0.000511449
    -0.000000037
     0.000869162
     0.000008696
    -0.000050301
    -0.000043416
    -0.000701750
    -0.000909922
    -0.001526517
    -0.001772937
    -0.000000003
    -0.000002159
    -0.001453225
    -0.001711122
     0.000226439
    -0.000092201
    -0.000000002
    -0.000372297
     0.000003675
    -0.000000904
    -0.000000009
    -0.001830023
    -0.001832826
    -0.000160243
     0.000131803
    -0.000000001
    -0.001102473
    -0.000114123
    -0.000036427
    -0.001092363
    -0.000000002
    -0.001775518
    -0.000432341
    -0.000375267
    -0.000063488
     0.000195731
    -0.001423081
    -0.000634524
    -0.000186747
    -0.000000829
    -0.001495569
    -0.001589099
    -0.001192720
    -0.001114440
     0.000278596
     0.000701958
     0.000588858
    -0.000001512
    -0.001600700
    -0.002074892
    -0.000977040
    -0.000872359
    -0.000002309
    -0.000001586
     0.000304945
     0.000128035
    -0.001020066
    -0.000034967
    -0.000103298
    -0.000040477
    -0.001722017
    -0.001744816
    -0.001266424
    -0.001317692
    -0.000003427
    -0.000000167
    -0.000000502
    -0.000029181
    -0.000000243
    -0.000000144
    -0.000008954
    -0.000000000
    -0.000255890
    -0.000271162
    -0.000380611
    -0.000000031
    -0.001249275
    -0.001957016
    -0.001486482
     0.000217674
    -0.000000983
    -0.000000015
    -0.000020780
    -0.001453292
     0.000121796
    -0.002235166
     0.000661279
    -0.000947384
    -0.002124415
    -0.000134807
    -0.002153114
    -0.001282983
    -0.000363868
    -0.000927270
    -0.000169616
    -0.000002146
    -0.000002318
    -0.002020852
    -0.001434359
    -0.000424386
     0.000007460
    -0.000501313
    -0.001492853
    -0.000738823
     0.000183486
    -0.001138973
    -0.000615844
    -0.001523192
    -0.000601867
    -0.000557272
     0.000635534
    -0.000286121
    -0.001424242
    -0.000656897
     0.000403465
    -0.000945395
     0.000001631
    -0.001043381
    -0.001900496
    -0.000427560
    -0.002028185
    -0.000959372
     0.000748566
    -0.000101652
    -0.001380965
    -0.000000094
    -0.001046423
     0.000543391
    -0.001086088
    -0.000676844
    -0.001170298
    -0.000639936
    -0.000444749
    -0.000848347
    -0.000601553
    -0.000983978
    -0.000004719
    -0.000579676
    -0.000318221
    -0.000738632
     0.000321559
     0.000077537
    -0.000000006
    -0.001332817
    -0.000378271
    -0.001735197
    -0.000032240
    -0.000506464
    -0.001717446
    -0.000234284
    -0.001768276
    -0.001069627
    -0.000001171
    -0.000903889
     0.000097677
     0.000601231
    -0.000000041
    -0.002009330
    -0.000391683
    -0.001316145
     0.000379403
    -0.000191980
    -0.000000257
    -0.000218728
    -0.000000000
    -0.000000010
    -0.000125020
    -0.000959951
    -0.001325759
    -0.000032646
    -0.000491324
    -0.000911123
    -0.000543715
    -0.000000030
    -0.001521875
    -0.000000077
    -0.001334439
     0.000508155
    -0.000000223
    -0.001631868
     0.000063122
     0.000391797
    -0.001024873
    -0.001157159
    -0.000949847
    -0.001263401
    -0.000052195
    -0.000523285
    -0.002192993
    -0.000665667
    -0.000817799
     0.000255545
    -0.000021750
    -0.003155566
    -0.000000154
    -0.001072106
    -0.000500408
    -0.000632043
    -0.000540430
    -0.001049940
    -0.001571842
    -0.001649381
    -0.000115911
    -0.000629165
    -0.000381872
    -0.001672176
    -0.000939128
    -0.002067647
    -0.000771411
    -0.000192541
    -0.000257389
    -0.000000058
    -0.001216163
    -0.000541966
    -0.000229160
    -0.000553598
    -0.001524228
     0.000163642
    -0.000061556
    -0.000774461
    -0.000272885
    -0.000657088
    -0.000000003
    -0.001512462
    -0.000222629
     0.000188141
    -0.000000033
    -0.000020026
    -0.000092064
    -0.000003622
     0.000236618
    -0.002379998
    -0.000000056
    -0.000000547
    -0.002386101
    -0.001682244
    -0.001564226
     0.000323723
    -0.000002949
    -0.000006632
    -0.000896070
    -0.000760151
    -0.001527442
    -0.000604441
    -0.000937128
    -0.001539158
    -0.001230541
    -0.001940771
    -0.000000003
    -0.000646273
    -0.000295818
    -0.000658464
    -0.000000002
    -0.002436555
     0.000600688
    -0.002212347
     0.000219895
    -0.000000094
    -0.002243858
    -0.001677666
    -0.001866735
    -0.000914360
    -0.000457165
    -0.000215900
    -0.000300658
     0.000475857
     0.000500429
    -0.000000008
     0.000403868
     0.000097969
    -0.000004508
    -0.000341807
    -0.000699458
    -0.000000032
    -0.000000009
     0.000762676
     0.000283303
    -0.000036334
    -0.000342678
    -0.000000016
     0.000710404
     0.000438281
    -0.000069759
    -0.000378230
     0.000000004
    -0.000000000
    -0.000570425
    -0.000000001
    -0.000065998
    -0.000279724
    -0.000706820
    -0.000837468
     0.001307062
     0.001504459
    -0.000364878
    -0.000179548
    -0.000816195
    -0.000015970
    -0.001972303
     0.000990240
     0.001032996
    -0.000000050
    -0.000436241
    -0.000000001
    -0.002236617
    -0.001567015
    -0.000403641
    -0.001206921
    -0.000000001
     0.000328283
     0.000096525
    -0.000278625
    -0.000689997
     0.000003008
     0.000000097
    -0.000625578
    -0.000576588
    -0.000000176
     0.000778710
     0.000991331
    -0.000082959
    -0.000155411
     0.000532485
     0.000600092
     0.000837695
     0.000841351
     0.000017452
     0.000009893
    -0.000442678
    -0.000038542
     0.001059038
     0.001155857
     0.000363454
     0.000291103
     0.000000044
     0.000000003
    -0.000000000
    -0.000659172
    -0.000411555
     0.000276773
     0.000731346
    -0.001472338
    -0.000000456
    -0.000223224
    -0.000942939
    -0.002189037
    -0.001548594
    -0.000381059
    -0.000384985
    -0.000000045
     0.001214016
     0.001146215
    -0.000017351
     0.000173578
    -0.000003400
     0.000866381
     0.000350828
     0.000295736
     0.000634106
    -0.000530928
    -0.000392333
    -0.000728440
    -0.000657397
    -0.000499524
    -0.000994914
    -0.000014615
    -0.001931885
    -0.000100187
    -0.000100477
    -0.000298106
    -0.000000041
    -0.000000144
    -0.000000001
    -0.000000000
    -0.000000002
    -0.000866621
    -0.000003171
    -0.000211790
    -0.000202723
    -0.000162559
    -0.000843515
    -0.000346874
     0.000134747
     0.000426287
    -0.000000799
    -0.002401857
    -0.000237952
    -0.001987170
    -0.000906012
     0.000690019
     0.000783820
    -0.000497089
    -0.000567518
     0.001214216
     0.000866391
    -0.000000002
     0.000002092
     0.000000904
     0.000127124
     0.000002494
    -0.000686069
    -0.000550515
     0.000243924
     0.000476736
     0.000321727
     0.000389792
     0.001076357
     0.000739188
    -0.000007456
    -0.000095042
    -0.000097302
    -0.000000002
    -0.000022999
    -0.000002814
     0.000325384
    -0.000290983
    -0.000178042
    -0.000125271
    -0.000895598
    -0.001268466
    -0.001229281
    -0.000000020
     0.000498464
     0.000012697
    -0.000001016
    -0.000000017
    -0.000000089
     0.000268225
    -0.001078698
     0.000019158
    -0.001782710
    -0.002078514
    -0.000609697
    -0.002055727
    -0.000000002
    -0.001440011
    -0.000760932
    -0.000855851
    -0.000922430
    -0.000000594
    -0.000000002
    -0.001711207
    -0.001898600
     0.000068984
     0.000655231
    -0.000217394
    -0.001358272
    -0.000344664
    -0.000014844
    -0.000000018
    -0.000000007
    -0.000357828
    -0.001397376
    -0.000160659
    -0.001090996
    -0.001089451
     0.000059656
    -0.000018105
     0.000675903
    -0.001329337
    -0.000002319
    -0.000000009
    -0.000249966
    -0.002352011
     0.000171595
    -0.000582288
     0.000000118
    -0.002062976
    -0.001628343
    -0.001188101
    -0.001966951
    -0.000000001
    -0.000525084
     0.000352994
    -0.000000001
    -0.000913963
    -0.001234064
     0.000005239
    -0.000000023
     0.000137032
    -0.000674994
     0.000155386
    -0.000712495
    -0.001097431
    -0.000617801
    -0.000720441
    -0.000007627
    -0.000944827
    -0.000383962
    -0.000613915
    -0.000004169
     0.000299243
     0.000355943
     0.000128081
     0.000043094
     0.000542077
    -0.001156472
     0.000391944
    -0.001435433
    -0.001876757
    -0.000496586
    -0.001502820
    -0.000000056
    -0.001470639
    -0.000000436
    -0.000959019
    -0.000000005
    -0.000357497
    -0.000266393
     0.000000124
    -0.000000055
    -0.001907908
    -0.001562205
    -0.001120659
    -0.000265952
    -0.000018626
    -0.000627338
    -0.000037393
    -0.002139646
    -0.000081873
    -0.003619176
    -0.000071056
    -0.000004743
    -0.000872892
    -0.000501299
    -0.000602893
    -0.000456217
    -0.000386967
    -0.000840430
    -0.001807978
    -0.000001266
    -0.001316378
     0.000510322
     0.000702748
     0.000127719
    -0.001422883
    -0.000257404
    -0.000000000
    -0.000436541
    -0.000455429
    -0.001135502
    -0.000735827
    -0.000642641
    -0.000467026
    -0.002137910
    -0.001592840
    -0.000832197
    -0.000187075
    -0.000000004
    -0.002221181
    -0.000060790
    -0.001048810
    -0.000576644
    -0.000724892
    -0.001539426
    -0.000992983
    -0.000590312
    -0.000604777
    -0.001629143
    -0.000874185
    -0.001658380
    -0.000669448
    -0.000922119
    -0.000013000
    -0.000382101
    -0.000354062
    -0.000404185
    -0.001559699
     0.000224790
    -0.000623288
     0.000545644
    -0.001307007
    -0.000242711
    -0.000443120
    -0.001422459
    -0.001323864
     0.000397412
     0.000357058
    -0.000000671
    -0.000224633
    -0.000000002
    -0.002087049
    -0.002488371
    -0.002261721
    -0.002160987
    -0.001380343
    -0.000521920
    -0.000000011
    -0.000000053
    -0.000015317
    -0.000818071
     0.000118291
    -0.001169110
    -0.001588333
    -0.000819736
    -0.001395016
    -0.000491459
    -0.001013227
    -0.000159724
    -0.000675122
    -0.000238475
    -0.000000099
    -0.001604758
    -0.000000022
    -0.001901360
    -0.002313065
    -0.000000014
    -0.001947253
    -0.002005539
    -0.001396455
    -0.000474886
    -0.000531049
    -0.000572647
    -0.000247552
     0.000534776
     0.000492342
    -0.000282351
    -0.000139031
    -0.000922094
     0.000545636
     0.000098773
    -0.000050952
    -0.001056378
    -0.000879220
    -0.000089281
    -0.000260110
    -0.000000004
    -0.000000001
     0.000802896
     0.000844169
    -0.001488214
    -0.001668249
    -0.001801644
    -0.001778326
     0.000548015
     0.000231685
    -0.000918373
    -0.001052281
    -0.000001275
    -0.000342780
    -0.000800182
    -0.001222791
    -0.000088885
    -0.000935126
    -0.001336721
    -0.001286951
     0.000217549
     0.000586276
    -0.001257612
    -0.000003041
    -0.000240517
    -0.000220869
     0.000327418
    -0.000150383
    -0.001764746
    -0.000000023
    -0.000647284
    -0.000142348
     0.000008899
     0.000181900
    -0.000000007
    -0.000184182
    -0.000222952
    -0.000000001
    -0.000713415
    -0.001124322
    -0.001685794
    -0.001546187
    -0.000000765
    -0.000009122
    -0.000000418
    -0.000104329
    -0.000215800
    -0.000002429
    -0.000948255
    -0.000868301
    -0.000007937
    -0.000000621
    -0.000920589
    -0.000894466
    -0.000000142
    -0.000006282
    -0.000000058
     0.000000298
     0.000005936
    -0.000000652
    -0.001485908
    -0.001444455
    -0.001422058
    -0.001407784
     0.000433086
    -0.000006497
    -0.000168467
    -0.000620557
    -0.002153220
    -0.002368521
    -0.001435454
    -0.001652087
    -0.001050640
    -0.000303480
    -0.001255221
    -0.001240963
     0.000004399
     0.000016060
    -0.000000017
     0.000157713
     0.000057547
    -0.001404380
    -0.001415053
    -0.001318496
    -0.001372290
    -0.000579151
    -0.000603098
    -0.000000380
    -0.003022434
     0.000000187
     0.000196692
     0.000629372
    -0.000964924
    -0.001350428
    -0.000303151
    -0.001597190
    -0.000489274
    -0.001694763
    -0.001826977
    -0.001038115
    -0.001243702
     0.001190531
    -0.000000040
    -0.000000318
     0.000811022
    -0.000000000
    -0.000000014
    -0.000332377
    -0.000007063
     0.000500016
     0.000524225
     0.001112029
     0.000855520
    -0.000000009
    -0.000019887
    -0.000000156
    -0.003913143
    -0.000303873
    -0.001576066
    -0.001767233
    -0.000008399
    -0.000252467
    -0.001620172
    -0.001452261
    -0.000666291
    -0.001094354
    -0.001464916
    -0.001651652
    -0.000032248
    -0.000739860
    -0.001066446
    -0.000279673
    -0.000921972
    -0.000000008
     0.000000263
     0.000128585
     0.000523585
     0.000218080
     0.000385729
     0.000316251
    -0.000707531
    -0.001857516
     0.000896991
     0.001020531
    -0.000002674
    -0.000183523
    -0.000000000
    -0.000000062
     0.000004158
     0.000069836
    -0.002183289
    -0.001290052
    -0.001660306
    -0.001619470
    -0.000043539
    -0.000158342
    -0.001346417
    -0.001258655
    -0.001466300
    -0.001664137
    -0.001650788
    -0.001791499
    -0.001349051
     0.000376800
     0.000014396
    -0.000012197
    -0.000002008
    -0.000000005
     0.000029355
    -0.000000000
    -0.000665437
     0.000738578
     0.000000322
    -0.000262450
    -0.000000079
    -0.000043905
     0.000375472
    -0.001240536
     0.000459784
     0.000862549
    -0.000820319
     0.000448854
     0.001141602
    -0.001168993
    -0.000010441
    -0.000045112
    -0.000629982
     0.000000781
    -0.000000000
    -0.001083833
    -0.000016095
     0.000263760
     0.000262256
    -0.001832789
    -0.000109890
    -0.000089818
    -0.000977661
    -0.000018055
     0.000219310
     0.000678381
    -0.000000041
     0.000524076
    -0.000000001
    -0.000000172
    -0.001263105
    -0.002786566
    -0.000162968
    -0.001155417
    -0.000000032
     0.000298225
     0.000211034
    -0.000003181
     0.000803047
     0.000037458
    -0.001267221
    -0.000041097
     0.000447830
    -0.000303181
     0.000624921
     0.000190363
     0.000525770
    -0.000000441
    -0.000671231
    -0.000000000
     0.000038203
    -0.000606023
    -0.000020155
     0.000378268
    -0.000000045
     0.000028460
    -0.001332637
     0.000264708
    -0.001234576
     0.000734070
     0.000744142
    -0.000000002
     0.000705298
    -0.000070917
     0.000751633
    -0.000454395
    -0.000401665
     0.000088908
    -0.000697577
    -0.000000022
     0.000184982
    -0.000000000
    -0.000548877
    -0.000527392
    -0.000000024
     0.000492372
     0.001582934
    -0.001167735
     0.000864162
     0.000010407
    -0.001334358
     0.000348727
    -0.000169992
    -0.000000479
    -0.001291928
    -0.001454722
    -0.001805342
     0.000393559
     0.000000795
    -0.000114718
     0.000000021
     0.000395377
    -0.000593607
    -0.001261300
     0.000191383
     0.000640834
     0.000950519
    -0.000000003
    -0.000000003
    -0.001957548
    -0.000014932
    -0.000295085
    -0.000216798
     0.000023586
    -0.000935917
    -0.000009982
     0.000011638
    -0.001056924
     0.000096132
     0.001468579
    -0.001086729
     0.001159390
    -0.000000135
    -0.000695283
    -0.000000015
    -0.001123757
    -0.000524669
     0.000004303
    -0.001371332
    -0.000747167
    -0.000839650
    -0.000757404
    -0.001498698
    -0.003963370
     0.000686471
     0.000009188
    -0.000139390
    -0.000017403
    -0.000712152
    -0.000051119
     0.000741999
    -0.000000008
    -0.000056809
    -0.000012645
    -0.000000025
     0.001013200
    -0.001142796
    -0.000298760
    -0.000095089
    -0.000150985
     0.000000051
     0.000338099
    -0.001446200
    -0.000029791
     0.000042181
    -0.000249429
    -0.000001705
     0.001215241
    -0.001230996
     0.000897744
    -0.000494832
    -0.000505815
    -0.000124576
    -0.000345093
    -0.001164001
     0.000753408
    -0.000560300
    -0.000085894
    -0.000513166
    -0.001072185
    -0.002201636
    -0.000413852
    -0.000000006
    -0.000818636
     0.000109353
    -0.000000000
    -0.000034497
    -0.000019595
     0.000266117
    -0.000758586
    -0.000173278
     0.000092174
    -0.000637498
    -0.000000001
    -0.000396681
    -0.000671247
    -0.002103121
    -0.000026838
    -0.000885615
     0.000108304
     0.000009625
     0.000692054
    -0.000920961
     0.001210274
    -0.001019026
     0.000202026
    -0.000000001
    -0.000218151
    -0.000553156
     0.000104182
    -0.001361514
    -0.000017650
    -0.000000034
    -0.000192933
     0.000955451
    -0.000000085
    -0.000445126
    -0.001330237
     0.001032025
    -0.000262716
    -0.000342181
    -0.000783858
     0.000001386
    -0.000243235
    -0.000264900
     0.000128037
     0.001416573
    -0.000000011
    -0.000326764
     0.001063436
     0.000042391
    -0.001439900
     0.000136392
     0.000694483
    -0.000000013
    -0.001096285
     0.000094251
    -0.001919380
    -0.001258655
    -0.000327456
     0.000452848
    -0.000789491
    -0.000000000
    -0.000000106
    -0.000180018
    -0.000239925
     0.001045897
    -0.001251984
     0.000013727
    -0.000885190
    -0.001221142
     0.000794198
     0.000852215
    -0.001110393
    -0.000578399
     0.000773747
    -0.000283277
    -0.001169336
     0.000000000
     0.000118716
    -0.000000002
     0.000330664
     0.000166488
    -0.000857606
     0.000609484
     0.000000054
    -0.000358979
    -0.002256632
    -0.003820190
     0.000000710
    -0.000738190
    -0.000000000
    -0.003016769
    -0.000275094
    -0.000079735
    -0.000629977
     0.000137624
    -0.000707733
     0.000424482
    -0.000794103
    -0.001506677
    -0.000000005
     0.000747019
     0.000994018
     0.000136425
    -0.000031378
    -0.000678305
     0.000000114
     0.000292573
    -0.001149546
     0.000902723
     0.000000379
    -0.000000001
    -0.000035162
    -0.000557650
    -0.000032301
    -0.001437732
    -0.000965362
    -0.001165534
    -0.001994471
     0.000702665
     0.000037836
    -0.000000168
    -0.000074993
    -0.000202852
    -0.000000000
    -0.000658082
     0.000022939
     0.000137568
    -0.000040939
    -0.000000183
     0.000703524
    -0.000550664
     0.000220256
    -0.001312510
     0.000004485
    -0.000007602
    -0.001249943
     0.000311963
     0.000009912
     0.000000357
     0.000018566
     0.000280847
    -0.000922198
    -0.000147201
    -0.000121415
    -0.000971023
    -0.001881121
    -0.000273141
    -0.001115423
    -0.001885242
     0.000074558
    -0.001150884
    -0.001535784
    -0.000136532
    -0.000597560
    -0.000484286
     0.000237575
    -0.001063295
    -0.000000212
    -0.001050290
    -0.000009181
    -0.000045381
    -0.001560674
     0.000196761
    -0.000000053
    -0.000522056
     0.001068483
    -0.000019071
    -0.000382278
     0.000651085
     0.000875189
    -0.000000001
    -0.000813800
     0.001321493
     0.000830860
     0.000102442
    -0.000000825
    -0.001307708
    -0.000233478
    -0.001186268
     0.000020526
     0.000852578
    -0.001264227
    -0.000392938
    -0.000336652
    -0.000000001
    -0.000562878
    -0.000000178
    -0.000005750
    -0.000972567
     0.000021510
    -0.001148631
    -0.000558689
     0.000605412
    -0.000000000
    -0.000746431
    -0.000000057
     0.000836578
     0.001286832
    -0.000000034
    -0.001081076
    -0.000000007
    -0.000305857
    -0.000786473
    -0.000663659
     0.000496136
     0.000855164
     0.001173706
    -0.001543764
     0.000384878
     0.000771658
     0.000534550
     0.000087345
     0.000015457
    -0.000062646
    -0.000395685
    -0.000579568
    -0.000477496
    -0.000456246
    -0.001055774
    -0.001054616
    -0.000001335
    -0.000000251
    -0.000000320
     0.000000243
     0.000002282
    -0.001793460
    -0.001596651
    -0.001034033
    -0.000796865
    -0.000648750
    -0.000125218
    -0.000460019
    -0.000512607
    -0.001785649
    -0.001895179
    -0.000345297
    -0.000000022
    -0.000962918
    -0.000761685
    -0.001907663
    -0.001765498
    -0.002384344
    -0.000295117
     0.000203095
     0.000107735
    -0.000374645
    -0.000491344
    -0.000062423
    -0.000056670
    -0.000296785
    -0.000287257
    -0.000000007
     0.000552085
     0.000574843
     0.000345688
     0.000319257
    -0.001225614
    -0.001090147
    -0.001360460
    -0.001218354
    -0.000000095
    -0.000642770
    -0.000620565
    -0.001657915
    -0.001692039
    -0.000723488
    -0.000007632
    -0.000920507
    -0.001553368
    -0.001474628
    -0.000001448
    -0.000000212
    -0.001308493
    -0.001196624
    -0.000217422
    -0.000572333
    -0.000459219
    -0.001025266
    -0.000000017
    -0.000230623
    -0.000009179
    -0.000000047
    -0.001967719
    -0.001792957
    -0.000429190
    -0.000252580
    -0.001162656
    -0.000819062
    -0.000232617
    -0.000388346
    -0.001271622
    -0.001511857
    -0.000675259
    -0.000000039
    -0.000354860
    -0.000216828
    -0.001909441
    -0.001607963
    -0.000000815
    -0.000000002
    -0.001454207
    -0.001486380
     0.000449196
     0.000315834
     0.000225069
     0.000076210
     0.000175541
     0.000183072
     0.000238971
     0.000245270
    -0.000743126
    -0.000432935
    -0.001604024
    -0.001290150
    -0.000002036
    -0.000000010
    -0.000000314
    -0.000002267
    -0.000969206
    -0.001693351
    -0.000702034
    -0.000941647
    -0.000021723
    -0.001965789
    -0.000216062
    -0.001201169
    -0.000536018
    -0.000236410
    -0.001100053
    -0.000810622
    -0.000002401
    -0.000000298
    -0.001887710
    -0.001822027
     0.000110669
     0.000212490
    -0.000622137
    -0.000799031
     0.000041629
     0.000363333
    -0.001388610
    -0.001050061
    -0.000511069
    -0.000449983
    -0.001144381
    -0.001085916
    -0.000790558
    -0.000704570
    -0.000873663
    -0.000246799
     0.000187381
     0.000242141
     0.000514358
     0.000568127
    -0.000017491
    -0.000472421
    -0.000589477
    -0.001106362
    -0.001251175
    -0.000311475
    -0.000204630
    -0.002123162
    -0.002066354
    -0.001833363
    -0.003460543
     0.000279866
     0.000404770
     0.000371903
     0.000455746
    -0.001311102
    -0.000969569
    -0.001529337
    -0.001212399
    -0.000039259
    -0.000000146
    -0.000810505
    -0.000004064
    -0.000000001
    -0.000000002
    -0.000000045
    -0.000000062
    -0.001579214
    -0.001860755
    -0.001802413
    -0.000658782
    -0.000570352
    -0.000825380
    -0.000554883
    -0.000000003
    -0.000000011
    -0.000000010
    -0.000000034
    -0.001574013
    -0.001184002
    -0.000761584
    -0.000425883
    -0.000875357
    -0.000531554
    -0.000022171
    -0.000000029
    -0.000766071
    -0.000931927
    -0.001249730
    -0.001433654
    -0.000080730
    -0.000121875
    -0.001764099
    -0.001922068
    -0.001476462
    -0.002959670
    -0.000000078
    -0.000000020
    -0.000000331
    -0.000000004
     0.000436471
     0.001606832
     0.001620795
     0.001631343
     0.001644494
     0.000926912
     0.000930580
     0.000936003
     0.000939692
     0.000679886
     0.000653985
     0.000306572
     0.000284279
     0.000637364
     0.000465927
     0.000521599
     0.000358307
     0.001033133
     0.000936389
     0.000706169
     0.000601132
     0.001492687
     0.001508399
     0.001501416
     0.001516859
     0.001475056
     0.001480527
     0.001517411
     0.001522897
     0.001257566
     0.001266776
     0.001279186
     0.001288469
     0.001665169
     0.001662531
     0.001627084
     0.001622516
     0.001693224
     0.001676816
     0.001640426
     0.001622190
    -0.000012090
    -0.000010221
    -0.000004364
    -0.000003223
    -0.000007620
    -0.000006258
    -0.000007116
    -0.000004588
     0.001218277
     0.001229433
     0.001721575
     0.001726649
     0.001207322
     0.001235993
     0.001683902
     0.001720896
    -0.000000208
    -0.000101747
     0.000571531
     0.000775815
    -0.000122003
    -0.000104042
    -0.000000001
    -0.000219573
    -0.000982587
    -0.000000019
    -0.000000247
    -0.000010863
    -0.000000019
     0.000053957
    -0.000376162
    -0.000001199
    -0.000026887
     0.000967515
     0.001034384
    -0.000079484
    -0.000159664
     0.000897528
     0.000718840
    -0.000276803
     0.000115227
    -0.000004841
    -0.000000411
    -0.000363802
    -0.000039696
    -0.000000207
    -0.000167953
     0.001081506
    -0.000091796
     0.001076073
    -0.000057903
    -0.000000004
     0.000328609
    -0.000238402
    -0.000006382
    -0.000287888
    -0.000011286
    -0.000004419
    -0.000353994
    -0.000301624
    -0.000000001
     0.001015866
     0.000193344
    -0.000124368
    -0.000129041
    -0.000000001
     0.000836422
    -0.000000001
    -0.000000042
    -0.000016768
     0.000501571
     0.000342258
    -0.000106535
    -0.000005587
    -0.000004933
    -0.000000013
    -0.000000000
    -0.000031200
     0.000901566
    -0.000169556
     0.000327806
     0.000623594
    -0.000005951
    -0.000285658
     0.000279547
     0.000565127
     0.000596407
    -0.000156820
    -0.000081896
    -0.000000351
     0.000449884
    -0.000377329
    -0.000000475
    -0.000000016
     0.000103812
    -0.000000089
    -0.000117697
    -0.000000005
    -0.000000527
     0.000595572
     0.000295455
    -0.000069563
    -0.000000126
    -0.000090202
    -0.000068238
    -0.000021446
    -0.000018542
    -0.000000004
     0.000145557
    -0.000002318
     0.000949771
     0.000646061
    -0.000082622
     0.002154872
    -0.000007962
     0.001442371
     0.001932528
    -0.000003565
    -0.000193130
     0.001350723
    -0.000163486
     0.000293997
     0.001380532
     0.001476514
     0.001233351
     0.001327895
     0.001903880
     0.000038683
     0.001756293
    -0.000000205
     0.001581643
     0.001884977
     0.001467767
     0.001650254
     0.002034632
     0.000050542
     0.001250966
     0.001699975
    -0.000178012
    -0.000000670
     0.001852457
     0.000599003
     0.001459577
     0.001663991
    -0.000000001
     0.000035331
     0.000846454
     0.001865364
    -0.000168420
    -0.000000405
     0.001809165
     0.001896466
     0.001428013
     0.001669278
     0.002221836
    -0.000000033
     0.001690963
     0.001463432
     0.000291285
     0.001568420
     0.001856615
     0.001914241
     0.000079267
    -0.000000025
    -0.000243492
     0.001154169
     0.000025183
     0.001943243
    -0.000001008
    -0.000003998
     0.001478708
    -0.000048279
     0.001928321
     0.001475802
     0.000640699
     0.000652417
     0.000742219
     0.001703646
    -0.000003240
     0.001416639
    -0.000001865
     0.001238907
     0.001726914
     0.001416983
     0.001662284
     0.001335853
    -0.000002863
     0.000737095
     0.001725645
    -0.000000416
     0.001210900
     0.001256113
     0.001178984
     0.001498141
     0.001434380
     0.001938336
     0.001588445
     0.001288806
     0.001984866
    -0.000000002
     0.001423026
    -0.000000478
     0.001310851
     0.000009322
     0.000428715
     0.000126918
     0.002037791
     0.002055114
     0.001708698
    -0.000000081
     0.000162975
     0.001611707
     0.001699701
     0.001414093
    -0.000000027
     0.001862622
     0.000232407
     0.001669028
    -0.000000027
     0.001338914
     0.001506829
     0.001311573
     0.001638347
     0.002018252
     0.000487240
    -0.000000001
     0.001921854
     0.001807584
     0.001576246
     0.000502480
     0.001403127
    -0.000000001
     0.001306767
     0.001999005
     0.002037988
     0.001778902
     0.000090060
     0.002066856
    -0.000000097
    -0.000023990
    -0.000000010
     0.000628630
    -0.000271196
    -0.000203058
    -0.000001033
     0.000637548
     0.000548026
    -0.000000141
    -0.000000010
    -0.000411208
    -0.000000011
     0.000285429
    -0.000000906
    -0.000003027
    -0.000056879
    -0.000023193
    -0.000000021
    -0.000002943
     0.000613323
     0.000075594
     0.001259175
    -0.000536722
    -0.000000568
    -0.000007742
    -0.000175507
    -0.000044989
     0.000907833
    -0.000399363
     0.000522176
     0.000169490
     0.000695609
     0.000052952
     0.001442848
     0.001509725
    -0.000000019
     0.001274572
     0.001087484
     0.001336650
     0.001334706
     0.001279661
    -0.000000074
    -0.000000034
     0.000759884
    -0.000016890
    -0.000010845
     0.001479119
     0.001232355
     0.001167867
     0.001035117
     0.000970963
     0.001662100
     0.001629748
     0.001640294
     0.001367741
     0.000997727
     0.001491811
     0.001259244
     0.001168133
    -0.000002818
    -0.000005783
     0.001777920
     0.001271140
     0.001604053
    -0.000000025
    -0.000008009
    -0.000006031
     0.001484791
     0.000010104
     0.001327816
    -0.000014958
     0.001267484
     0.001686966
    -0.000003580
     0.001496440
     0.001724347
     0.001592062
     0.001279194
     0.001119459
     0.001264007
     0.001649492
     0.001495635
     0.001305709
    -0.000004333
    -0.000009097
     0.001301945
     0.001699879
     0.001107749
     0.001590297
     0.001703667
    -0.000000210
     0.000040907
     0.001671282
    -0.000369405
    -0.000632575
    -0.000001693
    -0.000486572
    -0.000000152
    -0.000368687
    -0.000092436
    -0.001315884
    -0.000938719
    -0.000000002
    -0.000564546
    -0.000170450
    -0.000000057
    -0.000058440
    -0.000049938
    -0.000950551
    -0.000000050
    -0.000000956
    -0.000000263
    -0.000185990
    -0.000002391
    -0.000087021
    -0.000002973
    -0.000000192
    -0.000000002
    -0.000108269
    -0.000000084
    -0.000053331
    -0.000212976
    -0.000000088
    -0.000212339
    -0.000000938
    -0.000000057
    -0.000662421
    -0.000000900
     0.000324524
    -0.000000013
     0.000305292
    -0.000153084
    -0.000265111
    -0.000000001
    -0.000027999
     0.000152496
     0.000178633
    -0.000000002
    -0.000010456
    -0.000424513
     0.000382873
     0.000690273
    -0.000000001
     0.000587277
    -0.000000001
    -0.000475940
    -0.000015514
    -0.000342154
    -0.000056894
    -0.000006757
    -0.000000003
     0.000256797
    -0.000020276
    -0.000036783
     0.000508694
     0.000318504
    -0.000000241
    -0.000000008
    -0.000017148
    -0.000001003
    -0.000172949
    -0.000000001
    -0.000001293
    -0.000049564
    -0.000130885
    -0.000077383
    -0.000000001
    -0.000063867
    -0.000003198
    -0.000001998
     0.000032564
     0.000115784
    -0.000000458
    -0.000310607
    -0.000536027
    -0.000001542
    -0.000000000
     0.000000143
     0.000718913
     0.000845049
     0.000130666
     0.000276840
    -0.000000018
    -0.000000062
     0.001763151
     0.001733040
     0.001996604
     0.001989181
     0.001567435
     0.001560231
     0.001646081
     0.001637991
     0.001371776
     0.001363627
     0.000001688
     0.000019894
    -0.000000069
     0.000000340
     0.001402169
     0.001711074
     0.002223635
     0.002296550
     0.001967918
     0.001934126
     0.001492535
     0.001856746
     0.002131746
     0.002082414
     0.000378513
     0.000436885
    -0.000000008
    -0.000000013
     0.001552948
     0.001541663
    -0.000000000
     0.000815253
     0.001010941
     0.001718273
     0.001698555
     0.002253204
     0.002255665
     0.001592310
     0.001572167
     0.000025235
     0.000133267
    -0.000000063
    -0.000000283
     0.002085262
     0.002032338
     0.001892063
     0.001869821
     0.002149614
     0.002212093
     0.002191969
     0.002158476
     0.001875261
     0.002109920
    -0.000000003
     0.000372136
     0.001593857
     0.002318148
     0.001477128
    -0.000000163
    -0.000000147
    -0.000036802
    -0.000305151
    -0.000169323
    -0.000000001
    -0.000105574
    -0.000000001
    -0.000003672
    -0.000262784
    -0.000006559
    -0.000378421
    -0.000158169
    -0.000319433
    -0.000214623
    -0.000000001
    -0.000171282
     0.000444768
    -0.000000008
    -0.000242073
    -0.000269655
     0.000454290
     0.000771095
    -0.000000011
    -0.000000037
     0.000737196
    -0.000000290
    -0.000046478
    -0.000281500
    -0.000015941
    -0.000060257
     0.000314223
    -0.000000006
    -0.000000001
    -0.000011743
    -0.000000002
    -0.000230861
    -0.000177791
    -0.000003222
    -0.000000004
     0.000759612
     0.001054738
    -0.000073781
    -0.000042035
    -0.000250262
     0.000787767
    -0.000000052
    -0.000055489
    -0.000000747
    -0.000272108
    -0.000000054
    -0.000035959
     0.000474249
    -0.000000012
    -0.000769651
    -0.000105328
    -0.000000006
     0.000291828
     0.000179704
    -0.000035114
    -0.000004474
     0.000577057
    -0.000000000
    -0.000000976
     0.000646247
    -0.000013959
     0.000030053
     0.001401980
    -0.000000046
     0.001316623
    -0.000001391
     0.001204693
     0.001519872
     0.001179685
     0.001478493
    -0.000001385
    -0.000021436
     0.000590122
    -0.000000077
     0.001344664
    -0.000005638
     0.001342124
     0.001324519
     0.001090298
     0.001068097
     0.001641374
     0.001775564
     0.001603494
     0.001509675
     0.000021404
     0.000068536
     0.001186192
    -0.000000080
     0.001153679
    -0.000000323
     0.001717497
     0.001043114
     0.001590961
     0.001560890
     0.001336275
     0.000637370
     0.001276365
     0.001034531
    -0.000010189
     0.000022838
     0.001698138
    -0.000000072
     0.001573324
    -0.000004596
     0.001694422
     0.001748852
     0.001258934
     0.001202733
     0.001520727
     0.001696148
     0.001544582
     0.001484028
     0.001198618
     0.000557942
     0.001760431
     0.001129349
     0.001730419
     0.001630754
     0.001202057
     0.001641018
     0.000556111
     0.000293142
     0.000915835
     0.001710882
     0.001525920
     0.001180780
     0.002123741
     0.001650180
     0.000327607
     0.001592287
     0.000982896
    -0.000000000
     0.000008714
     0.001751584
     0.000010031
    -0.000000321
     0.001358089
    -0.000000063
     0.001129309
     0.001074531
     0.001276194
     0.001223109
     0.001788059
     0.001562127
     0.001949190
     0.001775940
     0.001483833
     0.001407644
     0.001918411
     0.002149421
     0.001719700
    -0.000000599
     0.001949618
     0.000494607
    -0.000000002
     0.000031337
     0.001758832
    -0.000000008
     0.001627498
    -0.000000977
    -0.000003340
     0.000344162
     0.001775599
     0.001765305
    -0.000000142
     0.000047994
     0.002006412
     0.001432293
     0.001297224
     0.001803534
     0.001677320
     0.001608022
     0.001870626
     0.001587373
     0.001425170
     0.001584918
    -0.000000011
     0.000284236
     0.001279547
     0.001736339
     0.001250264
     0.002024200
    -0.000008748
     0.001925164
    -0.000001372
    -0.000000505
    -0.000000002
     0.000465060
     0.000654559
     0.001471215
     0.001523513
     0.001780771
     0.001787510
     0.000019975
     0.000006775
     0.001520808
     0.001526402
    -0.000000158
    -0.000000073
     0.000932568
     0.000946800
     0.001035137
     0.001049277
    -0.000000022
     0.001124000
     0.000571337
     0.000310310
     0.000005350
     0.001462162
     0.001526864
     0.001601989
     0.001664179
    -0.000003520
    -0.000000816
     0.001829603
     0.001722702
    -0.000005249
    -0.000005969
     0.001321556
     0.001342487
     0.001793030
     0.001812293
    -0.000000001
     0.001594998
     0.001631764
     0.000587592
     0.000395276
     0.001190749
     0.001227026
     0.001446943
     0.001481870
     0.001706128
     0.001755841
     0.001546085
     0.001191214
     0.001267602
     0.001310728
     0.001739318
     0.001770098
     0.001153360
     0.000795003
     0.000284079
     0.000028038
    -0.000000164
    -0.000000003
     0.001503238
     0.001157192
     0.001131390
     0.001446116
    -0.001255135
    -0.000358747
    -0.000001728
    -0.000427246
    -0.000000238
    -0.000000441
    -0.001463409
    -0.001121636
    -0.000001765
    -0.000718933
    -0.000509943
    -0.000000006
    -0.000056599
    -0.000001240
    -0.000042728
    -0.000144919
    -0.000392670
    -0.000002273
    -0.000008278
    -0.000175276
    -0.000000626
    -0.000176135
    -0.000003433
    -0.000000446
    -0.000003191
     0.000398997
     0.000281167
     0.001587074
     0.001591543
     0.001407007
     0.001313348
    -0.000001711
    -0.000004589
     0.001273160
     0.001323833
    -0.000003385
    -0.000007495
     0.000912391
     0.000884518
     0.000826808
     0.000799499
    -0.000018022
     0.000657855
     0.000097489
     0.001109648
    -0.000000062
     0.001504962
     0.001383969
     0.001387602
     0.001266479
    -0.000015978
     0.000039621
     0.001302335
     0.001618810
    -0.000000025
    -0.000003188
     0.001597516
     0.001567010
     0.001232145
     0.001194703
     0.000435673
     0.000969936
     0.001511050
     0.001464461
     0.001317257
     0.001248522
     0.001103826
     0.001036159
     0.001047317
     0.001515493
     0.001545096
     0.001509984
     0.001164484
     0.001080563
     0.001588658
     0.001525799
    -0.000000006
     0.000127882
     0.000557560
    -0.000000002
    -0.000001754
    -0.000011892
     0.000203568
     0.001250381
     0.001396694
     0.001261820
     0.001001023
    -0.000062023
    -0.000046818
    -0.000018496
     0.000742666
    -0.000000517
    -0.000000002
    -0.000376006
    -0.000000033
    -0.000472928
    -0.000000198
     0.000466728
    -0.000000008
     0.000319888
    -0.000294626
     0.000364482
    -0.000141635
    -0.000011439
    -0.000098868
     0.000296230
    -0.000000012
     0.000536907
     0.000590032
     0.000886714
    -0.000073679
     0.000915287
    -0.000002850
    -0.000178631
    -0.000520114
    -0.000130581
    -0.000005067
    -0.000373327
    -0.000109110
    -0.000045090
    -0.000448319
    -0.000004737
    -0.000059948
    -0.000000001
    -0.000000055
    -0.000064153
    -0.000132746
    -0.000009342
    -0.000112742
     0.000634214
    -0.000014896
     0.000732672
    -0.000033972
    -0.000085805
    -0.000250120
    -0.000000092
    -0.000102460
    -0.000001226
     0.000916622
    -0.000060696
    -0.000000115
     0.000174032
    -0.000000001
     0.000387383
     0.000958578
    -0.000000013
     0.000697119
    -0.000000342
    -0.000620817
    -0.000126185
    -0.000000077
    -0.000233777
     0.000165255
    -0.000029540
     0.000479600
    -0.000001999
    -0.000003699
    -0.000361997
    -0.000040543
     0.000937226
     0.000944364
     0.000924007
     0.000939568
    -0.000000158
    -0.000027167
    -0.000081403
    -0.000466108
    -0.001092822
    -0.000000335
     0.000374905
     0.000518877
     0.000664069
     0.001012108
    -0.000000753
    -0.000000970
    -0.000346065
    -0.000198778
     0.000165871
     0.000224376
     0.000797327
     0.000962562
    -0.000000138
    -0.000011087
    -0.000019576
    -0.000463872
     0.000011069
    -0.000001632
     0.001087434
     0.001134441
    -0.000211335
     0.000420288
     0.000102650
     0.000888990
    -0.000000031
     0.000908744
     0.000656099
     0.000651045
    -0.000004369
     0.001978397
     0.001927530
     0.001447938
     0.000002092
    -0.000000197
     0.001576183
     0.001347569
    -0.000022794
     0.000926335
     0.001511209
     0.001340460
     0.001407677
     0.001236781
     0.001754104
     0.001759402
     0.001623461
     0.002059302
     0.000143719
     0.001710739
     0.001508271
     0.001540340
    -0.000000012
     0.001940896
    -0.000002080
     0.000002605
     0.001348355
     0.001402764
     0.001244061
     0.002078510
     0.001845179
     0.001568575
    -0.000000007
     0.001670987
     0.001985628
     0.001388553
     0.000270209
     0.001810490
     0.001683235
     0.001832056
     0.001412005
     0.001995569
    -0.000001926
    -0.000005126
     0.001587913
     0.001581676
     0.001964573
     0.001477684
    -0.000000614
     0.001747950
     0.000052450
    -0.000001696
    -0.000001226
     0.000989695
     0.001932763
     0.001821194
     0.000065122
     0.001774939
    -0.000000060
     0.001894099
     0.001564808
    -0.000583638
    -0.000101148
    -0.000134595
    -0.000000744
    -0.000223481
     0.000230957
    -0.000177006
    -0.000007683
    -0.000092363
    -0.000000573
    -0.000000161
    -0.000000028
    -0.000027621
    -0.000000119
    -0.000875426
    -0.000037915
     0.000276670
    -0.000197296
     0.000124380
    -0.000010669
    -0.000000024
    -0.000021993
    -0.000000084
    -0.000930297
    -0.000071677
    -0.001018149
    -0.000040109
    -0.000842667
    -0.000000217
    -0.000368520
    -0.000020855
     0.000798951
    -0.000000053
